Data from Reflection_11-17-15-736.txt Node
Date: Fri Mar 08 11:17:15 EST 2024
User: zxiong
Spectrometer: USB4F04538
Trigger mode: 4
Integration Time (sec): 1.000000E0
Scans to average: 1
Electric dark correction enabled: true
Nonlinearity correction enabled: false
Boxcar width: 0
XAxis mode: Wavelengths
Number of Pixels in Spectrum: 3648
>>>>>Begin Spectral Data<<<<<
345.52	554.55
345.736	554.55
345.952	554.55
346.168	764.34
346.384	191.89
346.6	-171.86
346.816	-107.1
347.032	85.57
347.248	494.5
347.464	-360.87
347.68	130.25
347.896	345.71
348.112	52.96
348.328	170.42
348.544	532.2
348.76	82.97
348.975	-424.32
349.191	-305.92
349.407	32.37
349.623	391.71
349.839	391.08
350.055	-52
350.27	316.33
350.486	176.02
350.702	127.88
350.918	84.32
351.133	71.43
351.349	127.89
351.565	97.67
351.781	23.56
351.996	144.53
352.212	110.66
352.428	-610.18
352.644	66.46
352.859	-38.59
353.075	189.33
353.291	178.76
353.506	210.88
353.722	72.38
353.938	290.31
354.153	115.24
354.369	1676
354.584	79.4
354.8	127.03
355.016	268.32
355.231	-234.27
355.447	233.55
355.662	1179.34
355.878	35.85
356.093	125.62
356.309	554.55
356.524	414.88
356.74	192.2
356.955	28.81
357.171	453.85
357.386	163.28
357.602	270.55
357.817	83.08
358.033	163.54
358.248	158.08
358.464	288.31
358.679	78.96
358.895	66.52
359.11	253.92
359.325	-40.78
359.541	924.51
359.756	76.81
359.972	-6645.45
360.187	552.28
360.402	53.27
360.618	75.26
360.833	365.03
361.048	276.33
361.264	-57.4
361.479	133.49
361.694	186.61
361.909	109.66
362.125	154.92
362.34	49.27
362.555	118.65
362.77	170.22
362.986	-81.68
363.201	26.06
363.416	212.47
363.631	219.72
363.847	53
364.062	-109.56
364.277	91.4
364.492	57.49
364.707	-235.96
364.922	128.94
365.138	199.38
365.353	114.21
365.568	148.28
365.783	150.65
365.998	394.35
366.213	159.69
366.428	33.67
366.643	160.78
366.858	131.35
367.073	153.32
367.288	67.3
367.503	133.98
367.718	122.65
367.933	169.94
368.148	89.9
368.363	144.25
368.578	402.64
368.793	153.14
369.008	118.18
369.223	-2708.7
369.438	173.54
369.653	66.48
369.868	168.51
370.083	81.95
370.298	150.94
370.513	123.51
370.728	108.32
370.943	29.99
371.157	212.48
371.372	174.19
371.587	-113.75
371.802	64.3
372.017	92.63
372.232	126.49
372.446	153.63
372.661	88.99
372.876	-2936.36
373.091	234.94
373.306	57.17
373.52	10.18
373.735	163.22
373.95	196.88
374.165	236.76
374.379	78.24
374.594	140.49
374.809	206.76
375.023	85.26
375.238	90.33
375.453	360.05
375.667	343.03
375.882	92.2
376.097	104.96
376.311	94.45
376.526	171.07
376.741	25.87
376.955	271.73
377.17	81.56
377.384	176.67
377.599	144.24
377.813	20.16
378.028	132.51
378.242	143.72
378.457	73.87
378.672	125.12
378.886	92.63
379.101	139.55
379.315	53.71
379.53	72.79
379.744	130.73
379.958	53.48
380.173	65.61
380.387	83.5
380.602	178.54
380.816	222.09
381.031	130.83
381.245	51.84
381.459	93.58
381.674	6426.03
381.888	12.04
382.103	113.79
382.317	87.95
382.531	82.64
382.746	86.52
382.96	55.25
383.174	98.95
383.388	102.7
383.603	68.26
383.817	75.33
384.031	39.03
384.246	14.46
384.46	73.85
384.674	216.8
384.888	57.71
385.103	104.79
385.317	64.16
385.531	64.02
385.745	212.75
385.959	104.12
386.174	53.58
386.388	88.52
386.602	82.52
386.816	118.39
387.03	43.41
387.244	214.04
387.458	170.42
387.672	47.96
387.887	57.83
388.101	127.81
388.315	88.26
388.529	107.96
388.743	49.81
388.957	48.03
389.171	124.65
389.385	89.28
389.599	-32.52
389.813	54.5
390.027	140.65
390.241	114.7
390.455	100.65
390.669	96
390.883	69.46
391.097	120.56
391.311	80.5
391.525	54.2
391.738	131.05
391.952	116.76
392.166	165.14
392.38	33.48
392.594	82.45
392.808	19.47
393.022	35.74
393.236	26.82
393.449	59.34
393.663	75.38
393.877	35.89
394.091	51.97
394.305	94.18
394.518	89.39
394.732	57.62
394.946	70.27
395.16	110.88
395.373	106.13
395.587	75.83
395.801	97.7
396.015	29.22
396.228	66.05
396.442	44.23
396.656	62.02
396.869	62.13
397.083	109.1
397.297	15.19
397.51	79.06
397.724	86.35
397.938	117.7
398.151	59.19
398.365	74.3
398.578	87.94
398.792	104.77
399.005	83.34
399.219	53.34
399.433	65.24
399.646	145.25
399.86	78.24
400.073	88.55
400.287	93.77
400.5	141.23
400.714	84.56
400.927	40.3
401.141	126.72
401.354	169.33
401.567	108.44
401.781	56.09
401.994	89.23
402.208	120.37
402.421	92.59
402.635	58.66
402.848	84.52
403.061	82.81
403.275	68.07
403.488	85
403.701	94.03
403.915	146.83
404.128	81.52
404.341	68.7
404.555	74.91
404.768	59.31
404.981	89.19
405.195	78.71
405.408	51.34
405.621	84.94
405.834	66.32
406.048	78.9
406.261	79.08
406.474	69.64
406.687	19.65
406.9	66.93
407.114	115.01
407.327	118.18
407.54	70.81
407.753	65.61
407.966	109.69
408.179	51.94
408.392	69.06
408.605	57.61
408.819	85.5
409.032	107.23
409.245	73.94
409.458	69.11
409.671	68.27
409.884	73.3
410.097	43.78
410.31	54.62
410.523	85.22
410.736	72.21
410.949	91.81
411.162	42.48
411.375	53.4
411.588	66.75
411.801	75.5
412.014	63.56
412.227	51.11
412.44	83.04
412.653	49.5
412.865	69.81
413.078	116.12
413.291	91.09
413.504	67.07
413.717	63.01
413.93	61.83
414.143	78.46
414.356	75.87
414.568	66.88
414.781	63.57
414.994	81.86
415.207	46.36
415.42	52.14
415.632	69.3
415.845	66.13
416.058	51.21
416.271	48.03
416.483	76.55
416.696	65
416.909	41.62
417.121	59.71
417.334	63.98
417.547	44.28
417.759	46.51
417.972	43.97
418.185	59.04
418.397	47.61
418.61	48.51
418.823	40.42
419.035	84.4
419.248	51.86
419.46	58.15
419.673	57.73
419.885	53.49
420.098	73.09
420.311	56.41
420.523	52.13
420.736	66.44
420.948	77.44
421.161	62.65
421.373	49.96
421.586	57.76
421.798	55.08
422.01	66.41
422.223	63.18
422.435	43.29
422.648	60.74
422.86	39.62
423.073	42.43
423.285	42.43
423.497	42.25
423.71	50.34
423.922	57.9
424.134	104.35
424.347	63.37
424.559	46.16
424.771	50.26
424.984	79.73
425.196	57.15
425.408	43.48
425.621	62.34
425.833	40.65
426.045	56.08
426.257	41.54
426.47	47.68
426.682	41.71
426.894	46.85
427.106	43.06
427.318	46.65
427.531	51.39
427.743	46.04
427.955	67.51
428.167	64.36
428.379	53.02
428.591	51.56
428.804	47.31
429.016	46.38
429.228	51.73
429.44	60.12
429.652	33.78
429.864	22.77
430.076	53.83
430.288	53.79
430.5	35.61
430.712	42.34
430.924	33.87
431.136	48.06
431.348	32.75
431.56	28.2
431.772	42.79
431.984	46.57
432.196	37.69
432.408	38.39
432.62	49.85
432.832	56.34
433.044	48.57
433.256	43.33
433.468	56.34
433.679	48.95
433.891	28.35
434.103	34.7
434.315	44.29
434.527	36.93
434.739	39.31
434.95	52.15
435.162	41.32
435.374	44.25
435.586	47.53
435.798	32.09
436.009	56
436.221	50.85
436.433	50.75
436.645	40.75
436.856	44.97
437.068	54.76
437.28	45.62
437.491	42.99
437.703	51.5
437.915	55.82
438.126	26.74
438.338	62.75
438.55	40.67
438.761	38.55
438.973	37.11
439.184	40.43
439.396	42.31
439.608	45.01
439.819	31.25
440.031	45.34
440.242	47.69
440.454	43.95
440.665	41.35
440.877	41.76
441.088	50.42
441.3	52.07
441.511	40.45
441.723	48.86
441.934	66.02
442.146	48.38
442.357	43.29
442.569	46.4
442.78	57.22
442.991	56.6
443.203	53.97
443.414	32.46
443.626	47.97
443.837	45.23
444.048	37.73
444.26	43.61
444.471	50.71
444.682	37.77
444.894	42
445.105	44
445.316	52.45
445.528	29.27
445.739	45.76
445.95	34.6
446.161	42.82
446.373	44.41
446.584	40.62
446.795	43.99
447.006	43.66
447.217	39.95
447.429	41.69
447.64	34.92
447.851	66.08
448.062	56.19
448.273	36.75
448.484	45.26
448.695	40.36
448.907	51.13
449.118	44.52
449.329	47.23
449.54	46.01
449.751	47.81
449.962	37.95
450.173	39.13
450.384	51.07
450.595	39.01
450.806	35.55
451.017	46.43
451.228	44.54
451.439	44.86
451.65	44.51
451.861	36.81
452.072	45.38
452.283	45.28
452.494	32.85
452.705	38.49
452.915	50.85
453.126	45
453.337	43.04
453.548	38.83
453.759	52.61
453.97	38.03
454.181	43.58
454.391	35.69
454.602	39.29
454.813	50.17
455.024	33.99
455.235	37.61
455.445	47.72
455.656	40.68
455.867	34.89
456.078	36.91
456.288	40.47
456.499	35.73
456.71	40.26
456.921	43
457.131	41.54
457.342	35.65
457.553	38.61
457.763	45.32
457.974	33.83
458.184	32.48
458.395	36.68
458.606	26.92
458.816	39.87
459.027	35.65
459.237	34.72
459.448	42.89
459.659	37.06
459.869	46.5
460.08	33.04
460.29	36.09
460.501	37.7
460.711	42.56
460.922	30.91
461.132	37.99
461.343	48.18
461.553	37.17
461.764	36.97
461.974	31.28
462.184	36.39
462.395	39.57
462.605	37.89
462.816	32.69
463.026	45.2
463.236	37.56
463.447	42.01
463.657	32.68
463.867	41.47
464.078	37.8
464.288	32.47
464.498	36.62
464.709	35.81
464.919	40.67
465.129	35.2
465.339	28.16
465.55	36.1
465.76	40.78
465.97	36.19
466.18	31.84
466.391	31.48
466.601	37.71
466.811	30.18
467.021	29.06
467.231	32.42
467.441	30.88
467.651	29.98
467.862	26.67
468.072	32.28
468.282	27.74
468.492	28.32
468.702	33.02
468.912	38.32
469.122	35.51
469.332	31.63
469.542	30.81
469.752	35.41
469.962	30.8
470.172	26.79
470.382	27.88
470.592	32.14
470.802	28.88
471.012	28.66
471.222	29.88
471.432	31.84
471.642	30.78
471.852	32.64
472.062	32.36
472.272	34.78
472.482	37.09
472.691	32.25
472.901	31.52
473.111	30.31
473.321	32.09
473.531	30.46
473.741	30.8
473.95	32.64
474.16	31.25
474.37	30.18
474.58	29.88
474.79	34.23
474.999	27.34
475.209	29.41
475.419	28.64
475.628	29.25
475.838	31.21
476.048	27.92
476.258	27.44
476.467	29.39
476.677	28.56
476.886	28.86
477.096	28.67
477.306	31.71
477.515	29.86
477.725	31.87
477.935	27.14
478.144	32.81
478.354	30.85
478.563	28.39
478.773	24.44
478.982	27.71
479.192	26.43
479.401	26.4
479.611	29.61
479.82	30.09
480.03	27.79
480.239	26.92
480.449	28.85
480.658	29.17
480.868	31.36
481.077	26.13
481.287	28.82
481.496	25.88
481.705	30.11
481.915	28.8
482.124	27.47
482.333	28.93
482.543	27.47
482.752	26.19
482.961	26.52
483.171	27.48
483.38	26.54
483.589	26.37
483.799	25.39
484.008	27.87
484.217	25.24
484.426	21.99
484.636	23.9
484.845	26.52
485.054	27.52
485.263	24.1
485.472	21.74
485.682	21.66
485.891	20.78
486.1	22.55
486.309	19.49
486.518	22.45
486.727	24.36
486.936	19.53
487.146	22.87
487.355	22.62
487.564	24.87
487.773	22.4
487.982	24.13
488.191	24.57
488.4	26.32
488.609	22.42
488.818	23.56
489.027	24.77
489.236	26.51
489.445	22.21
489.654	22.13
489.863	24.91
490.072	26.25
490.281	26.54
490.49	24.08
490.698	21.63
490.907	24.68
491.116	22.38
491.325	22.14
491.534	21.14
491.743	21.6
491.952	22.3
492.16	21.4
492.369	24.71
492.578	21.61
492.787	23.73
492.996	19.21
493.204	23.16
493.413	22.98
493.622	21.95
493.831	21.09
494.039	24.4
494.248	26.27
494.457	21.74
494.665	21.57
494.874	23
495.083	24.29
495.291	23.34
495.5	21.62
495.709	23.14
495.917	22.32
496.126	22.2
496.335	22.89
496.543	23.21
496.752	22.83
496.96	24.05
497.169	20.66
497.377	23.33
497.586	22.55
497.794	22.67
498.003	20.48
498.211	22.18
498.42	20.03
498.628	20.07
498.837	20.51
499.045	21.65
499.254	20.61
499.462	22.07
499.671	21.63
499.879	25.73
500.087	20.03
500.296	19.36
500.504	20.88
500.713	21.02
500.921	20.22
501.129	20.48
501.338	19.68
501.546	19.8
501.754	21.34
501.962	20.02
502.171	19.85
502.379	20.88
502.587	21.77
502.795	19.46
503.004	20.46
503.212	23.31
503.42	22.5
503.628	20.62
503.837	20.32
504.045	21.91
504.253	23.32
504.461	20.14
504.669	19.82
504.877	23.19
505.085	20.59
505.294	20.9
505.502	22.38
505.71	24.98
505.918	22.55
506.126	21.02
506.334	21.36
506.542	23.4
506.75	21.71
506.958	21.51
507.166	20.47
507.374	21.44
507.582	21.5
507.79	21.04
507.998	20.83
508.206	22.56
508.414	23.53
508.622	20.71
508.83	22.01
509.037	23.09
509.245	22.86
509.453	21.92
509.661	22
509.869	24.4
510.077	23.35
510.285	21.45
510.492	20.82
510.7	21.89
510.908	24.82
511.116	24.71
511.324	21.32
511.531	22.6
511.739	24.12
511.947	22.9
512.155	21.72
512.362	24.89
512.57	23.26
512.778	20.03
512.985	21.85
513.193	22.74
513.401	24.57
513.608	23.23
513.816	22.2
514.024	22.57
514.231	21.66
514.439	22.43
514.646	23.98
514.854	24.21
515.061	22.71
515.269	24.16
515.477	23.06
515.684	24.91
515.892	24.13
516.099	23.05
516.307	23.26
516.514	22.72
516.722	23
516.929	21.32
517.136	21.07
517.344	21.82
517.551	23.58
517.759	22.59
517.966	21.69
518.173	24.1
518.381	23.98
518.588	23.18
518.796	22.74
519.003	23.97
519.21	25.03
519.418	23.7
519.625	25.48
519.832	28.32
520.039	28.13
520.247	25.75
520.454	26.18
520.661	26.9
520.868	28.05
521.076	26.99
521.283	26.8
521.49	27.89
521.697	27.45
521.904	27.6
522.112	27.79
522.319	28.55
522.526	28.2
522.733	27.06
522.94	28.53
523.147	28.83
523.354	27.8
523.561	28.86
523.768	26.82
523.975	29.24
524.183	30.15
524.39	31.79
524.597	30
524.804	30.04
525.011	31.18
525.218	30.06
525.425	29.04
525.632	30.33
525.838	30.63
526.045	30.32
526.252	28.94
526.459	30.41
526.666	29.87
526.873	27.87
527.08	28.53
527.287	29.64
527.494	29.76
527.701	27.1
527.907	29.22
528.114	29.92
528.321	32.54
528.528	30.82
528.735	31.12
528.941	33.01
529.148	34.13
529.355	31.23
529.562	32.24
529.768	33.95
529.975	32.48
530.182	32.08
530.388	33.12
530.595	34.27
530.802	33.69
531.008	34.34
531.215	34.3
531.422	30.33
531.628	35.17
531.835	32.54
532.042	33.33
532.248	32.83
532.455	31.61
532.661	30.24
532.868	30.56
533.074	33.27
533.281	31.49
533.487	30.91
533.694	31.73
533.9	33.93
534.107	32.01
534.313	33.18
534.52	32.24
534.726	32.98
534.933	35.25
535.139	34.81
535.345	33.52
535.552	36.29
535.758	35.13
535.965	33.01
536.171	34.18
536.377	33.19
536.584	34.31
536.79	32.02
536.996	33.21
537.203	33.97
537.409	35.07
537.615	33.43
537.821	31.95
538.028	34.16
538.234	33.68
538.44	33.5
538.646	33.18
538.853	33.29
539.059	32.35
539.265	31.96
539.471	32.84
539.677	30.84
539.883	33.55
540.09	31.6
540.296	33.04
540.502	31.57
540.708	31.4
540.914	32.85
541.12	31.93
541.326	31.69
541.532	33.04
541.738	32.33
541.944	32.86
542.15	32.9
542.356	33.71
542.562	31.87
542.768	31.63
542.974	31.13
543.18	34.42
543.386	31.96
543.592	31.26
543.798	34.84
544.004	33.14
544.21	31.05
544.415	32.9
544.621	32.78
544.827	33.88
545.033	32.57
545.239	32.75
545.445	32.54
545.651	32.91
545.856	31.77
546.062	32.71
546.268	32.9
546.474	32.15
546.679	32.16
546.885	31.51
547.091	33.15
547.297	33.96
547.502	32.47
547.708	30.99
547.914	32.76
548.119	33.41
548.325	31.39
548.531	31.3
548.736	32.1
548.942	31.44
549.147	31.43
549.353	31.47
549.559	31.87
549.764	33.11
549.97	31.74
550.175	31.53
550.381	32.09
550.586	32.29
550.792	31.02
550.997	30.81
551.203	32.56
551.408	34.08
551.614	30.9
551.819	31.89
552.025	32.61
552.23	30.63
552.435	30.15
552.641	31.37
552.846	31.18
553.052	32.07
553.257	31.19
553.462	30.66
553.668	31.61
553.873	30.24
554.078	30.19
554.283	31.34
554.489	32.4
554.694	31.29
554.899	29.98
555.105	31.05
555.31	31.35
555.515	30.8
555.72	30.63
555.925	30.72
556.131	30.78
556.336	31.06
556.541	29.65
556.746	30.08
556.951	29.81
557.156	29.71
557.361	29.22
557.567	29.49
557.772	29.93
557.977	29.73
558.182	28.32
558.387	28
558.592	28.59
558.797	28.01
559.002	27.72
559.207	27.99
559.412	30.21
559.617	29.12
559.822	27.96
560.027	28.32
560.232	27.97
560.437	29.23
560.642	27.86
560.847	28.2
561.051	28.55
561.256	28.49
561.461	27.22
561.666	27.31
561.871	28.64
562.076	27.89
562.281	26.84
562.485	26.63
562.69	28.4
562.895	27.81
563.1	27.7
563.305	27.13
563.509	26.82
563.714	26.44
563.919	26.22
564.123	26.21
564.328	27.07
564.533	27.25
564.737	26.37
564.942	26.6
565.147	26.27
565.351	25.14
565.556	24.6
565.761	25.31
565.965	25.91
566.17	25.05
566.374	24.96
566.579	24.08
566.784	25.27
566.988	25.54
567.193	23.44
567.397	24.98
567.602	26.1
567.806	24.97
568.011	24.21
568.215	23.93
568.42	24.38
568.624	24.63
568.828	23.7
569.033	22.57
569.237	24.08
569.442	23.99
569.646	23.51
569.85	22.79
570.055	24.22
570.259	23.32
570.463	22.79
570.668	20.96
570.872	22.87
571.076	22.09
571.281	21.81
571.485	20.46
571.689	22.68
571.893	22.04
572.098	21.96
572.302	20.69
572.506	21.65
572.71	22.4
572.914	21.66
573.119	21.44
573.323	22.59
573.527	22.66
573.731	21.14
573.935	20.74
574.139	20.92
574.343	22.43
574.547	20.4
574.751	20.75
574.955	20.55
575.159	20.27
575.364	18.86
575.568	20.19
575.772	19.84
575.976	19.76
576.18	19.31
576.383	19.31
576.587	19.19
576.791	20.51
576.995	19.74
577.199	18.85
577.403	19.7
577.607	19.06
577.811	18.37
578.015	18.25
578.219	18.94
578.422	18.57
578.626	18.28
578.83	18.4
579.034	19.83
579.238	19.86
579.442	18.02
579.645	18.59
579.849	19.07
580.053	18.81
580.257	19.34
580.46	19.09
580.664	18.68
580.868	18.62
581.071	18.38
581.275	18.4
581.479	18.53
581.682	19.27
581.886	17.59
582.09	18.05
582.293	18.59
582.497	18.45
582.7	17.87
582.904	17.1
583.107	19.78
583.311	18.59
583.515	18.24
583.718	18.05
583.922	18.14
584.125	18.04
584.329	17.42
584.532	17.97
584.735	17.74
584.939	18.27
585.142	17.14
585.346	17.43
585.549	16.74
585.753	17.51
585.956	15.88
586.159	16.79
586.363	17.95
586.566	16.4
586.769	17.07
586.973	16.19
587.176	17.17
587.379	17.11
587.582	15.78
587.786	16.32
587.989	16.9
588.192	17
588.395	16.51
588.599	15.69
588.802	15.32
589.005	14.38
589.208	14.83
589.411	14.81
589.615	14.32
589.818	14.38
590.021	14.98
590.224	15.62
590.427	16.78
590.63	15.53
590.833	15.49
591.036	14.51
591.239	15.88
591.442	16.21
591.645	15.58
591.848	14.89
592.051	15.33
592.254	15.55
592.457	15.63
592.66	15.38
592.863	15.22
593.066	16.06
593.269	14.6
593.472	14.56
593.675	14.93
593.878	14.57
594.081	14.49
594.284	13.98
594.486	14.92
594.689	14.73
594.892	13.66
595.095	14.5
595.298	14.62
595.5	14.87
595.703	14.65
595.906	14.43
596.109	14.6
596.311	14.46
596.514	14.5
596.717	14.28
596.92	14.84
597.122	15.19
597.325	14.12
597.528	13.73
597.73	14.43
597.933	14.62
598.136	14.1
598.338	13.69
598.541	13.9
598.743	13.78
598.946	13.92
599.148	13.78
599.351	13.98
599.554	13.2
599.756	14.34
599.959	13.63
600.161	14.09
600.363	14.93
600.566	13.66
600.768	13.36
600.971	13.47
601.173	13.45
601.376	12.48
601.578	13.1
601.78	13.41
601.983	12.84
602.185	12.59
602.388	13.29
602.59	12.79
602.792	13.98
602.995	13.49
603.197	13.63
603.399	13.11
603.601	14.21
603.804	13.28
604.006	13.06
604.208	13
604.41	13.13
604.613	12.85
604.815	12.49
605.017	13.28
605.219	13.22
605.421	12.95
605.623	12.49
605.826	13.26
606.028	13.7
606.23	12.95
606.432	12.45
606.634	12.99
606.836	12.08
607.038	12.13
607.24	12.32
607.442	12.5
607.644	13.3
607.846	12.21
608.048	11.98
608.25	12.71
608.452	11.99
608.654	12.52
608.856	10.96
609.058	12.26
609.26	12.71
609.462	11.51
609.664	11.41
609.866	13.23
610.067	11.94
610.269	11.21
610.471	11.55
610.673	12.05
610.875	11.7
611.077	11.49
611.278	11.84
611.48	12.28
611.682	11.83
611.884	11.15
612.085	11.31
612.287	11.76
612.489	10.23
612.69	10.98
612.892	10.76
613.094	11.35
613.295	11.24
613.497	10.76
613.699	10.81
613.9	11.11
614.102	10.88
614.304	10.63
614.505	10.55
614.707	11.24
614.908	11.96
615.11	10.66
615.311	11.43
615.513	11.03
615.714	10.92
615.916	10.3
616.117	10.1
616.319	10.82
616.52	10.81
616.722	10.18
616.923	9.58
617.124	10.68
617.326	10.06
617.527	11.21
617.729	10.14
617.93	11.14
618.131	10.37
618.333	10.35
618.534	10.08
618.735	10.72
618.937	10.57
619.138	9.65
619.339	9.78
619.54	10.58
619.742	10.3
619.943	9.93
620.144	10.42
620.345	10.42
620.546	10.04
620.748	9.92
620.949	10.29
621.15	10.07
621.351	10.55
621.552	9.58
621.753	9.45
621.954	10.01
622.155	10.26
622.356	9.74
622.558	10.13
622.759	10.82
622.96	9.76
623.161	9.85
623.362	9.37
623.563	9.23
623.764	9.81
623.965	8.97
624.166	9.41
624.366	8.77
624.567	10.12
624.768	8.78
624.969	9.08
625.17	9.49
625.371	9.14
625.572	9.51
625.773	9.49
625.973	9.36
626.174	9.4
626.375	9.39
626.576	9.25
626.777	9.01
626.977	9.16
627.178	8.54
627.379	9.24
627.58	9.29
627.78	8.17
627.981	8.55
628.182	9.14
628.382	8.76
628.583	9.01
628.784	8.32
628.984	8.75
629.185	8.4
629.386	8.95
629.586	8.75
629.787	8.27
629.987	8.66
630.188	9.09
630.388	8.74
630.589	9.25
630.79	9.13
630.99	8.74
631.191	8.88
631.391	8.54
631.591	8.82
631.792	8.46
631.992	8.28
632.193	8.76
632.393	8.82
632.594	9
632.794	8.2
632.994	8.46
633.195	8.59
633.395	8.47
633.595	8.53
633.796	8.15
633.996	9.33
634.196	8.48
634.397	8.4
634.597	8.07
634.797	8.98
634.997	8.46
635.198	8.61
635.398	8.61
635.598	8.34
635.798	7.35
635.998	8.66
636.199	8.21
636.399	8.73
636.599	8.92
636.799	7.73
636.999	7.87
637.199	8.72
637.399	8.62
637.599	7.79
637.799	8.31
637.999	8.98
638.199	8.08
638.399	8.36
638.599	8.16
638.799	8.63
638.999	7.89
639.199	7.76
639.399	7.51
639.599	7.99
639.799	8
639.999	7.59
640.199	7.86
640.399	8.05
640.599	8.3
640.799	7.38
640.998	7.61
641.198	7.57
641.398	8.25
641.598	7.94
641.798	7.44
641.997	7.89
642.197	7.35
642.397	7.34
642.597	7.06
642.796	7.14
642.996	7.23
643.196	7.45
643.395	7.16
643.595	7.2
643.795	7.17
643.994	6.89
644.194	7.35
644.394	8.07
644.593	7.25
644.793	6.88
644.992	6.79
645.192	7.45
645.392	7.22
645.591	7.27
645.791	7.19
645.99	7.02
646.19	6.54
646.389	7.01
646.589	6.39
646.788	6.65
646.987	7.1
647.187	7.1
647.386	7.33
647.586	7.19
647.785	7.37
647.984	6.53
648.184	7.42
648.383	6.14
648.582	6.77
648.782	6.12
648.981	6.37
649.18	6.82
649.38	6.05
649.579	6.5
649.778	6.15
649.977	6.72
650.177	6.43
650.376	6.09
650.575	6.64
650.774	6.33
650.973	6.63
651.173	6.49
651.372	6.78
651.571	6.47
651.77	6.36
651.969	6.22
652.168	6.49
652.367	5.82
652.566	7.07
652.765	6.36
652.964	6.92
653.163	6.72
653.362	6.63
653.561	6.22
653.76	6.87
653.959	6.98
654.158	6.54
654.357	6.15
654.556	6.79
654.755	5.91
654.954	5.98
655.153	6.35
655.352	6.07
655.551	5.11
655.749	5.71
655.948	5.18
656.147	5.8
656.346	4.9
656.545	5.29
656.743	5.83
656.942	5.74
657.141	5.38
657.34	6.13
657.538	5.06
657.737	5.37
657.936	6.48
658.135	5.72
658.333	5.85
658.532	5.97
658.731	6.36
658.929	5.96
659.128	6.21
659.326	5.24
659.525	6.88
659.724	6.08
659.922	5.51
660.121	5.95
660.319	5.93
660.518	6.3
660.716	5.96
660.915	5.19
661.113	5.76
661.312	6.7
661.51	5.97
661.709	5.85
661.907	5.69
662.105	5.48
662.304	6.01
662.502	6.08
662.701	6.02
662.899	6.04
663.097	5.89
663.296	5.38
663.494	5.76
663.692	5.97
663.891	5.44
664.089	5.14
664.287	5.75
664.485	6
664.684	6.04
664.882	5.29
665.08	6.07
665.278	5.9
665.476	5.73
665.675	5.55
665.873	5.19
666.071	5.47
666.269	5.43
666.467	6.04
666.665	5.45
666.863	5.6
667.061	5.79
667.259	5.77
667.457	5.21
667.655	5.88
667.853	5.15
668.051	5.62
668.249	5.51
668.447	5.15
668.645	5.31
668.843	5.44
669.041	5.61
669.239	4.91
669.437	5.32
669.635	5.54
669.833	5.56
670.031	4.95
670.229	5.21
670.426	5.54
670.624	5.08
670.822	5.95
671.02	5.14
671.218	5.37
671.415	5.01
671.613	5.7
671.811	5.4
672.009	5.2
672.206	5.38
672.404	5.39
672.602	5.38
672.799	5.85
672.997	5.69
673.195	5.34
673.392	5.25
673.59	5.34
673.788	5.25
673.985	5.33
674.183	5.61
674.38	4.91
674.578	5.56
674.775	5.8
674.973	5.06
675.17	4.54
675.368	5.5
675.565	5.23
675.763	5.12
675.96	5.19
676.158	5.5
676.355	5.81
676.553	5.03
676.75	4.86
676.947	5.36
677.145	5.33
677.342	5.43
677.539	5.25
677.737	5.36
677.934	5.08
678.131	5.72
678.329	5.17
678.526	6.67
678.723	5.42
678.92	5.24
679.118	5.39
679.315	5.64
679.512	5.57
679.709	5.16
679.906	5.03
680.104	5.53
680.301	5.33
680.498	4.67
680.695	5.2
680.892	5.59
681.089	6.01
681.286	5.32
681.483	5.49
681.68	5.3
681.877	4.73
682.075	5.56
682.272	4.88
682.469	5.41
682.665	5.52
682.862	5.34
683.059	5.02
683.256	5.49
683.453	5.33
683.65	5.54
683.847	5.13
684.044	6.14
684.241	5.54
684.438	5.63
684.635	5.33
684.831	5.87
685.028	5.49
685.225	5.21
685.422	5.61
685.619	5.5
685.815	5.89
686.012	5.05
686.209	4.4
686.405	4.85
686.602	4.47
686.799	4.18
686.996	3.81
687.192	4.93
687.389	4.79
687.586	4.79
687.782	4.69
687.979	5.19
688.175	5.28
688.372	4.46
688.568	4.77
688.765	5.37
688.962	5.13
689.158	5.3
689.355	4.5
689.551	5.56
689.748	5.72
689.944	5.48
690.14	5.22
690.337	5.44
690.533	6.35
690.73	5.73
690.926	5.56
691.123	5.51
691.319	6.2
691.515	6.37
691.712	6.22
691.908	6.12
692.104	6.34
692.301	6.35
692.497	6.63
692.693	6.74
692.889	6.67
693.086	7.34
693.282	6.84
693.478	7.68
693.674	7.1
693.87	6.96
694.067	7.65
694.263	7.64
694.459	8.1
694.655	7.54
694.851	7.93
695.047	8.05
695.243	8.61
695.439	8.58
695.635	8.64
695.831	8.45
696.027	8.4
696.224	8.56
696.42	9.49
696.615	9.34
696.811	9.69
697.007	9.17
697.203	9.18
697.399	9.1
697.595	9.09
697.791	9.47
697.987	10.04
698.183	10.85
698.379	10.28
698.575	10.28
698.77	9.64
698.966	10.75
699.162	10.58
699.358	10.83
699.554	11.54
699.749	11.44
699.945	10.56
700.141	11.51
700.337	11.39
700.532	11.08
700.728	11.36
700.924	11.93
701.119	11.42
701.315	12.63
701.511	12.31
701.706	12.77
701.902	12.69
702.097	12.8
702.293	12.97
702.489	13.06
702.684	13.34
702.88	13.87
703.075	13.78
703.271	13.5
703.466	13.92
703.662	14.11
703.857	14.09
704.053	14.13
704.248	14.23
704.443	15.15
704.639	15.11
704.834	14.86
705.03	15.18
705.225	15.15
705.42	15.73
705.616	15.36
705.811	15.81
706.006	15.96
706.202	16.7
706.397	16.11
706.592	15.95
706.787	16.97
706.983	16.78
707.178	16.91
707.373	16.86
707.568	16.65
707.763	17.35
707.959	16.95
708.154	17.33
708.349	18.11
708.544	17.84
708.739	17.99
708.934	17.59
709.129	18.6
709.324	18.59
709.519	18.48
709.714	18.77
709.909	18.47
710.104	18.86
710.299	18.64
710.494	18.99
710.689	19.42
710.884	19.2
711.079	19.44
711.274	19.5
711.469	19.84
711.664	19.93
711.859	20.35
712.054	20.31
712.249	20.72
712.443	20.03
712.638	20.12
712.833	20.13
713.028	21.05
713.223	20.48
713.417	21.42
713.612	21.05
713.807	21.68
714.002	21.46
714.196	21.51
714.391	21.12
714.586	21.58
714.78	22.35
714.975	22.21
715.17	22.08
715.364	21.78
715.559	21.79
715.754	21.68
715.948	21.03
716.143	21.71
716.337	21.14
716.532	21.65
716.726	21.73
716.921	22.16
717.115	21.45
717.31	21.04
717.504	22.05
717.699	21.54
717.893	20.77
718.088	21.44
718.282	20.17
718.476	20.83
718.671	20.91
718.865	21.51
719.059	21.62
719.254	20.51
719.448	21.21
719.642	28.88
719.837	20.42
720.031	22.1
720.225	22.77
720.419	22.31
720.614	22.84
720.808	22.54
721.002	23.54
721.196	24.19
721.39	24.08
721.585	24.42
721.779	25.41
721.973	24.48
722.167	23.82
722.361	24.97
722.555	24.91
722.749	24.52
722.943	24.58
723.137	24.98
723.331	25.65
723.525	24.45
723.719	24.71
723.913	24.95
724.107	24.58
724.301	24.1
724.495	25.69
724.689	25.91
724.883	25.59
725.077	25.45
725.271	25.24
725.465	25.52
725.659	25.95
725.853	25.97
726.046	25.85
726.24	25.88
726.434	26.31
726.628	26.8
726.822	26.42
727.015	26.61
727.209	27.74
727.403	26.57
727.596	26.66
727.79	27.51
727.984	27.22
728.177	26.77
728.371	26.59
728.565	26.63
728.758	26.88
728.952	27.06
729.146	27.06
729.339	28.13
729.533	28.32
729.726	28.13
729.92	27.62
730.113	27.74
730.307	28.19
730.5	27.95
730.694	28.64
730.887	28.66
731.081	28.28
731.274	28.39
731.468	28.79
731.661	29.69
731.854	29.83
732.048	29.16
732.241	30.26
732.435	30.41
732.628	29.82
732.821	29.49
733.014	30.18
733.208	32
733.401	30.75
733.594	31.12
733.788	30.48
733.981	30.82
734.174	32.24
734.367	31.08
734.56	30.93
734.754	32.01
734.947	31.73
735.14	31.96
735.333	31.95
735.526	33
735.719	31.33
735.912	31.7
736.105	31.05
736.298	32.28
736.491	32.45
736.684	31.88
736.877	32.43
737.07	33.02
737.263	32.29
737.456	33.09
737.649	31.8
737.842	32.98
738.035	32.76
738.228	32.55
738.421	32.38
738.614	32.13
738.807	32.52
739	31.63
739.192	32.78
739.385	33.12
739.578	32.4
739.771	32.53
739.964	32.55
740.156	33.13
740.349	32.86
740.542	32.83
740.735	32.66
740.927	32.96
741.12	33.39
741.313	31.59
741.505	32.44
741.698	32.88
741.891	33.22
742.083	32.32
742.276	32.25
742.468	34.27
742.661	34.6
742.854	33.25
743.046	33.51
743.239	33.55
743.431	34.53
743.624	33.39
743.816	33.33
744.009	33.97
744.201	34.12
744.393	33.44
744.586	33.8
744.778	34.68
744.971	34.39
745.163	33.75
745.355	33.05
745.548	34.21
745.74	33.25
745.932	33.14
746.125	33.89
746.317	33.79
746.509	35.73
746.702	33.51
746.894	34.25
747.086	35.12
747.278	33.29
747.471	34.2
747.663	34.47
747.855	34.25
748.047	33.38
748.239	33.66
748.431	34.81
748.623	33.94
748.815	34.64
749.008	34.07
749.2	33.97
749.392	33.58
749.584	34.88
749.776	33.61
749.968	34.2
750.16	33.5
750.352	33.85
750.544	33.14
750.736	32.95
750.928	33.3
751.12	34.14
751.311	34.17
751.503	34.31
751.695	33.37
751.887	33.82
752.079	34.04
752.271	33.62
752.463	33.34
752.654	33.35
752.846	33.44
753.038	33.84
753.23	33.56
753.421	34.1
753.613	33.99
753.805	33.42
753.997	33.59
754.188	33.48
754.38	33.98
754.572	33.25
754.763	34.4
754.955	33.72
755.146	33.35
755.338	32.51
755.53	34.81
755.721	34.89
755.913	32.37
756.104	32.59
756.296	32.51
756.487	34.01
756.679	32.8
756.87	32.9
757.062	34.09
757.253	32.8
757.445	32.28
757.636	32.82
757.827	33.21
758.019	33.55
758.21	32.41
758.401	32.13
758.593	30.51
758.784	27.96
758.975	25.76
759.167	22.98
759.358	20.18
759.549	16.72
759.74	15.46
759.932	13.09
760.123	11.7
760.314	11.85
760.505	10.29
760.696	11.02
760.888	10.91
761.079	13.35
761.27	13.72
761.461	14.15
761.652	14.76
761.843	15.01
762.034	13.89
762.225	13.86
762.416	13.38
762.607	13.26
762.798	13.27
762.989	13.71
763.18	14.77
763.371	14.01
763.562	14.82
763.753	15.32
763.944	16.09
764.135	15.97
764.326	17.59
764.517	17.67
764.708	18.62
764.899	18.98
765.089	19.54
765.28	19.65
765.471	21.14
765.662	22.16
765.853	22.6
766.043	22.59
766.234	23.17
766.425	24.57
766.615	24.77
766.806	25.88
766.997	26.36
767.187	27.09
767.378	27.37
767.569	28.2
767.759	28.16
767.95	27.84
768.141	28.44
768.331	28.35
768.522	28.8
768.712	29.93
768.903	28.26
769.093	28.47
769.284	29.7
769.474	30.23
769.665	29.44
769.855	29.42
770.046	30.75
770.236	31.01
770.426	29.73
770.617	29.28
770.807	30.9
770.998	30.38
771.188	30.26
771.378	29.84
771.569	29.95
771.759	30.3
771.949	30.05
772.139	29.54
772.33	29.71
772.52	29.67
772.71	29.19
772.9	29.6
773.09	30.4
773.281	30.1
773.471	29.73
773.661	30.32
773.851	29.83
774.041	30.6
774.231	28.85
774.421	29.13
774.611	29.8
774.802	29.42
774.992	30.14
775.182	29.02
775.372	29.97
775.562	30.36
775.752	29.5
775.942	29.68
776.131	30.72
776.321	30.52
776.511	28.84
776.701	29.36
776.891	30.27
777.081	29.77
777.271	30.52
777.461	28.33
777.651	29.31
777.84	29.42
778.03	29.15
778.22	28.78
778.41	29.05
778.599	29.85
778.789	28.76
778.979	28.57
779.169	29.93
779.358	29.04
779.548	28.36
779.738	28.55
779.927	28.8
780.117	28.69
780.307	27.24
780.496	28.69
780.686	29.08
780.875	30.03
781.065	29.25
781.254	27.99
781.444	28.85
781.633	28.59
781.823	28.08
782.012	28.25
782.202	28.36
782.391	28.57
782.581	26.75
782.77	28.32
782.96	29.07
783.149	28.61
783.338	27.31
783.528	28.8
783.717	27.88
783.906	28.01
784.096	27.57
784.285	27.76
784.474	29.18
784.663	28.53
784.853	27.88
785.042	28.25
785.231	27.86
785.42	27.71
785.61	28.47
785.799	27.48
785.988	27.99
786.177	27.88
786.366	27.46
786.555	28.27
786.744	26.17
786.933	27.52
787.122	27.48
787.312	25.97
787.501	27.81
787.69	27.41
787.879	27.11
788.068	26.53
788.257	27.94
788.445	26.4
788.634	25.68
788.823	26.71
789.012	27.8
789.201	27.82
789.39	26.59
789.579	26.57
789.768	27.14
789.957	26.93
790.145	25.74
790.334	27.41
790.523	26.41
790.712	27.69
790.9	26.1
791.089	26.02
791.278	25.86
791.467	28.14
791.655	26.2
791.844	25.24
792.033	26.53
792.221	26.49
792.41	26.1
792.599	24.27
792.787	25.2
792.976	25.14
793.164	25.35
793.353	26.39
793.541	25.98
793.73	25.03
793.918	24.75
794.107	24.89
794.295	25.36
794.484	24.76
794.672	25.2
794.861	25.1
795.049	25.03
795.238	26.4
795.426	24.71
795.614	24.7
795.803	25
795.991	25.4
796.179	24.42
796.368	25.37
796.556	25.18
796.744	25.22
796.932	25.96
797.121	24.93
797.309	24.7
797.497	25.38
797.685	24.63
797.874	23.18
798.062	25.49
798.25	25.03
798.438	23.55
798.626	24.77
798.814	25.63
799.002	24.83
799.19	23.78
799.378	23.98
799.566	23.86
799.755	24.76
799.943	24.62
800.131	24.77
800.318	25.17
800.506	25.23
800.694	23.82
800.882	24.01
801.07	23.84
801.258	24.43
801.446	24.36
801.634	25.35
801.822	24.64
802.01	24.96
802.197	23.32
802.385	22.7
802.573	24.19
802.761	24.95
802.949	22.94
803.136	23.44
803.324	23.28
803.512	24.35
803.699	23.74
803.887	23.59
804.075	23.78
804.262	24
804.45	23.49
804.638	23.51
804.825	23.26
805.013	24.51
805.201	23.87
805.388	23.75
805.576	23.62
805.763	24.36
805.951	23.12
806.138	23.8
806.326	23.17
806.513	23.78
806.701	22.55
806.888	23.12
807.075	23.83
807.263	24.88
807.45	22.54
807.638	21.94
807.825	23.2
808.012	24.06
808.2	22.51
808.387	21.96
808.574	23.46
808.761	23.26
808.949	22.22
809.136	21.32
809.323	22.72
809.51	23.41
809.698	22.14
809.885	22.61
810.072	22.73
810.259	23.22
810.446	22.75
810.633	21.57
810.82	22.18
811.008	22.59
811.195	22.6
811.382	20.85
811.569	23.44
811.756	23.23
811.943	22.06
812.13	21.74
812.317	21.94
812.504	21.24
812.691	20.57
812.878	20.98
813.064	21.68
813.251	21.93
813.438	20.65
813.625	20.95
813.812	21.39
813.999	21.6
814.186	20.82
814.372	20.5
814.559	20.54
814.746	21.3
814.933	19.64
815.12	19.26
815.306	19.72
815.493	19.9
815.68	18.92
815.866	19.04
816.053	19.18
816.24	19.15
816.426	18.96
816.613	18.96
816.799	19.89
816.986	19.66
817.173	18.66
817.359	18.53
817.546	19.32
817.732	19.14
817.919	18.19
818.105	19.05
818.292	19.64
818.478	20.08
818.665	18.62
818.851	18.78
819.037	19.43
819.224	19.06
819.41	18.53
819.597	18.18
819.783	20.29
819.969	19.03
820.156	19.87
820.342	19.84
820.528	20.89
820.714	18.6
820.901	19.14
821.087	19.13
821.273	18.87
821.459	20.74
821.646	19.13
821.832	18.65
822.018	19.4
822.204	17.67
822.39	17.27
822.576	17.14
822.762	18.41
822.948	18.37
823.134	17.72
823.32	17.39
823.507	19.07
823.693	18.97
823.879	19.06
824.065	18
824.25	19.03
824.436	19.86
824.622	19.27
824.808	18.59
824.994	19.72
825.18	19.56
825.366	18.7
825.552	17.94
825.738	19.17
825.923	19.2
826.109	18.97
826.295	17.79
826.481	19.75
826.667	19.27
826.852	18.92
827.038	17.97
827.224	18.35
827.409	17.93
827.595	17.64
827.781	18.65
827.966	19.07
828.152	18.79
828.338	17.84
828.523	16.93
828.709	19.41
828.894	17.49
829.08	17.82
829.266	18.4
829.451	18.57
829.637	19.02
829.822	17.81
830.008	18.75
830.193	18.59
830.378	18.96
830.564	18.27
830.749	17.83
830.935	19.09
831.12	17.85
831.305	17.53
831.491	17.72
831.676	18.23
831.861	18.69
832.047	18.13
832.232	16.82
832.417	18.03
832.602	18.8
832.788	17.03
832.973	17.55
833.158	18.17
833.343	17.99
833.528	17.67
833.714	16.99
833.899	17.89
834.084	18.33
834.269	18.01
834.454	17.8
834.639	18.2
834.824	18.05
835.009	16.77
835.194	18.19
835.379	18.27
835.564	19.51
835.749	17.73
835.934	17.8
836.119	17.16
836.304	18.21
836.489	17.99
836.674	18.32
836.859	18.35
837.044	17.99
837.228	17.38
837.413	17.05
837.598	18.12
837.783	17.71
837.968	17.66
838.152	18.1
838.337	17.05
838.522	18.41
838.707	18.87
838.891	18.94
839.076	18.57
839.261	17.45
839.445	18.16
839.63	17.66
839.815	17.83
839.999	18.51
840.184	18.58
840.368	16.63
840.553	18.26
840.737	18.52
840.922	16.77
841.106	17.19
841.291	18.05
841.475	18.17
841.66	18.04
841.844	16.66
842.029	17.54
842.213	18.68
842.397	17.38
842.582	16.64
842.766	16.49
842.951	17.61
843.135	16.53
843.319	16.88
843.504	18.01
843.688	18.3
843.872	17.25
844.056	16.04
844.241	17.32
844.425	17.82
844.609	17.79
844.793	16.83
844.977	17.57
845.161	17.58
845.346	16.49
845.53	16.47
845.714	17.28
845.898	17.54
846.082	16.89
846.266	17.67
846.45	17.93
846.634	17.39
846.818	15.98
847.002	16.23
847.186	16.9
847.37	16.28
847.554	15.67
847.738	18.1
847.922	17.36
848.106	17.37
848.29	16.25
848.473	16.35
848.657	16.93
848.841	16.2
849.025	15.81
849.209	15.1
849.392	16.13
849.576	15.94
849.76	15.44
849.944	15.4
850.127	15.61
850.311	17.88
850.495	16.06
850.678	14.51
850.862	15.46
851.046	15.59
851.229	16.34
851.413	15.54
851.596	16.57
851.78	16.18
851.964	15.13
852.147	14.84
852.331	17.68
852.514	16.29
852.698	15.82
852.881	15.8
853.065	15.48
853.248	15.2
853.431	15.04
853.615	14.11
853.798	15.63
853.982	15.32
854.165	13.98
854.348	13.75
854.532	14.61
854.715	15.09
854.898	14.07
855.081	14.49
855.265	15.66
855.448	15.44
855.631	13.25
855.814	15.57
855.997	15.21
856.181	16.03
856.364	13.82
856.547	14.35
856.73	16.89
856.913	15.92
857.096	14.87
857.279	14.75
857.462	16.02
857.645	16.41
857.828	16.15
858.011	14.82
858.194	16.48
858.377	15.93
858.56	14.44
858.743	14.98
858.926	16.95
859.109	15.12
859.292	15.91
859.475	15.38
859.658	15.4
859.841	14.69
860.023	14.81
860.206	14.03
860.389	15.65
860.572	14.93
860.755	14.84
860.937	15.33
861.12	15.33
861.303	16.29
861.486	14.66
861.668	15.34
861.851	13.88
862.034	16.12
862.216	14.91
862.399	14.8
862.581	16.56
862.764	14.65
862.947	15.26
863.129	14.18
863.312	15.37
863.494	14.95
863.677	16.76
863.859	14.47
864.042	16.26
864.224	13.87
864.406	15.61
864.589	13.63
864.771	13.84
864.954	15.56
865.136	13.09
865.318	13.46
865.501	14.46
865.683	13.81
865.865	11.89
866.048	12.73
866.23	14.76
866.412	14.36
866.594	12.92
866.777	13.37
866.959	12.45
867.141	14.48
867.323	13.77
867.505	13.52
867.687	13.87
867.869	14.75
868.052	14.06
868.234	14.49
868.416	14.32
868.598	14.11
868.78	13.22
868.962	14.16
869.144	15.45
869.326	14.84
869.508	13.5
869.69	14.15
869.872	14.83
870.054	15.62
870.236	13.71
870.417	14.46
870.599	14.47
870.781	14.77
870.963	12.9
871.145	13.54
871.327	14.64
871.508	13.84
871.69	13.58
871.872	13.8
872.054	13.6
872.235	14.28
872.417	14.34
872.599	13.62
872.78	14.29
872.962	13.97
873.144	12.59
873.325	13.49
873.507	13.37
873.689	14.43
873.87	14.26
874.052	13.03
874.233	14.75
874.415	14.4
874.596	13.21
874.778	13.93
874.959	13.19
875.141	13.56
875.322	11.43
875.503	12.62
875.685	13.45
875.866	14.21
876.048	12.58
876.229	12.56
876.41	13.62
876.592	12.67
876.773	13.72
876.954	12.99
877.136	13.29
877.317	13.62
877.498	12.89
877.679	12.97
877.86	12.85
878.042	14.1
878.223	12.67
878.404	14.26
878.585	13.32
878.766	13.16
878.947	13.51
879.128	13.32
879.309	13.4
879.49	13.85
879.672	12.32
879.853	11.93
880.034	12.68
880.215	12.94
880.396	12.68
880.576	12.51
880.757	13.75
880.938	13.31
881.119	12.74
881.3	12.48
881.481	14.24
881.662	13.9
881.843	12.44
882.023	12.22
882.204	14.5
882.385	13.68
882.566	12.77
882.747	12.46
882.927	13.71
883.108	12.29
883.289	12.51
883.469	11.21
883.65	12.9
883.831	13.3
884.011	12.38
884.192	11.74
884.373	13.02
884.553	12.56
884.734	12.71
884.914	12.9
885.095	15.46
885.275	13.07
885.456	12.83
885.636	12.13
885.817	12.8
885.997	13.43
886.178	11.08
886.358	11.71
886.538	14.35
886.719	15
886.899	12.46
887.08	11.78
887.26	13.2
887.44	12.58
887.621	12.08
887.801	11.55
887.981	12.73
888.161	13.58
888.342	11.55
888.522	11.45
888.702	12.09
888.882	11.96
889.062	12.02
889.242	11.8
889.423	12.43
889.603	13.82
889.783	11.6
889.963	12.24
890.143	13.69
890.323	12.46
890.503	11.8
890.683	12.29
890.863	12.79
891.043	11.68
891.223	12.06
891.403	10.42
891.583	12.37
891.763	13.05
891.943	12.7
892.122	12.86
892.302	12.28
892.482	12.5
892.662	11.83
892.842	10.83
893.022	12.38
893.201	13.45
893.381	10.79
893.561	11.33
893.741	11.9
893.92	11.65
894.1	10.86
894.28	11.25
894.459	12.85
894.639	10.94
894.819	10.79
894.998	10.96
895.178	12.01
895.357	11.86
895.537	10.59
895.716	9.79
895.896	10.58
896.075	11.83
896.255	10.26
896.434	10.08
896.614	11.94
896.793	10.25
896.973	10.14
897.152	9.93
897.331	10.92
897.511	10.32
897.69	10.12
897.87	10.8
898.049	10.17
898.228	11.76
898.407	9.46
898.587	9.28
898.766	10.94
898.945	10.2
899.124	11.64
899.304	9.31
899.483	11.32
899.662	10.86
899.841	10.06
900.02	9.79
900.199	9.83
900.378	11.39
900.557	9.66
900.737	9.69
900.916	9.06
901.095	9.6
901.274	9.51
901.453	8.56
901.632	10.05
901.811	10.06
901.989	9.81
902.168	8.88
902.347	9.77
902.526	10.13
902.705	10.21
902.884	10.02
903.063	11.38
903.242	10.58
903.42	10.33
903.599	10.03
903.778	10.22
903.957	10.05
904.135	10.93
904.314	10.08
904.493	11.5
904.672	9.5
904.85	11.16
905.029	10.56
905.207	10.11
905.386	10.88
905.565	9.84
905.743	10.72
905.922	11.63
906.1	11.03
906.279	9.78
906.457	10.45
906.636	10.29
906.814	9.73
906.993	9.6
907.171	9.46
907.35	9.68
907.528	11.25
907.707	9.7
907.885	9.33
908.063	9.48
908.242	10.01
908.42	9.06
908.598	8.81
908.777	8.79
908.955	10.07
909.133	10.13
909.311	9.02
909.49	10.34
909.668	9.25
909.846	8.68
910.024	9.59
910.202	9.45
910.38	8.82
910.559	9.01
910.737	10.49
910.915	10.29
911.093	10.22
911.271	9.59
911.449	8.74
911.627	9.65
911.805	9.78
911.983	8.67
912.161	8.72
912.339	8.82
912.517	9.81
912.695	9.6
912.872	8.89
913.05	10.52
913.228	10.37
913.406	10.39
913.584	9.11
913.762	10.66
913.939	10.51
914.117	9.75
914.295	9.26
914.473	10.32
914.65	10.38
914.828	9.39
915.006	8.22
915.184	10.33
915.361	9.75
915.539	8.49
915.716	9.44
915.894	10.25
916.072	10.1
916.249	9.85
916.427	10.97
916.604	10.68
916.782	9.75
916.959	8.97
917.137	8.93
917.314	9.45
917.492	8.36
917.669	9.56
917.847	8.47
918.024	9.38
918.201	9.83
918.379	8.26
918.556	8.98
918.733	10.07
918.911	9.75
919.088	8.29
919.265	9.97
919.442	10.2
919.62	10.51
919.797	9.93
919.974	10.23
920.151	10.62
920.328	11.38
920.506	9.7
920.683	10.19
920.86	11.2
921.037	10.22
921.214	9.19
921.391	9.13
921.568	8.58
921.745	9.7
921.922	9.94
922.099	9.53
922.276	8.6
922.453	9.12
922.63	9.33
922.807	10.49
922.984	9.85
923.161	10.47
923.338	8.98
923.514	8.4
923.691	10.04
923.868	9.87
924.045	9.6
924.222	10.08
924.399	9.68
924.575	9.49
924.752	8.45
924.929	9.37
925.105	8.34
925.282	9.25
925.459	8.8
925.635	9.07
925.812	9.72
925.989	9.66
926.165	8.54
926.342	8.43
926.518	10.01
926.695	9.27
926.871	9.14
927.048	9.27
927.224	9.44
927.401	8.44
927.577	8.55
927.754	7.47
927.93	9.02
928.107	9.01
928.283	8.54
928.459	7.58
928.636	8.85
928.812	8.57
928.988	9.16
929.165	7.7
929.341	7.4
929.517	7.98
929.693	9.17
929.87	6.91
930.046	8.45
930.222	7.76
930.398	7.76
930.574	7.38
930.751	7.16
930.927	6.39
931.103	6.05
931.279	6.08
931.455	7
931.631	7.55
931.807	6.08
931.983	6.41
932.159	6.66
932.335	7.21
932.511	5.33
932.687	5.61
932.863	5.3
933.039	6.4
933.215	5.61
933.391	3.74
933.566	6.57
933.742	6.27
933.918	5.85
934.094	4.24
934.27	5.83
934.445	4.57
934.621	5.51
934.797	3.85
934.973	5.56
935.148	4.1
935.324	3.36
935.5	5.2
935.675	5.17
935.851	4.49
936.027	5.25
936.202	5.42
936.378	7.51
936.553	6.11
936.729	7.57
936.904	4.18
937.08	4.44
937.255	5.82
937.431	5.34
937.606	5
937.782	5.33
937.957	6.28
938.133	5.07
938.308	5.85
938.483	6.47
938.659	5.16
938.834	5.88
939.009	4.96
939.185	8.03
939.36	5.45
939.535	5.09
939.71	6.76
939.886	5.88
940.061	4.97
940.236	5.6
940.411	5.07
940.586	5.25
940.761	6.68
940.937	6.6
941.112	4.3
941.287	4.81
941.462	4.13
941.637	4.39
941.812	5.63
941.987	4.47
942.162	4.68
942.337	5.65
942.512	4.78
942.687	6.31
942.862	4.51
943.037	4.01
943.212	5.05
943.386	4.66
943.561	5.3
943.736	4.16
943.911	3.94
944.086	6.01
944.26	5.41
944.435	5.49
944.61	5.71
944.785	4.04
944.959	6.04
945.134	4.93
945.309	4.39
945.483	5.39
945.658	3.64
945.833	5.36
946.007	4.07
946.182	7.12
946.357	6.51
946.531	5.77
946.706	3.16
946.88	4.62
947.055	6.41
947.229	3.91
947.404	4.36
947.578	3.47
947.752	5.64
947.927	4.55
948.101	4.47
948.276	5.26
948.45	6.46
948.624	7.31
948.799	4.64
948.973	4.94
949.147	5.78
949.321	4.06
949.496	4.14
949.67	8
949.844	4.22
950.018	5.2
950.193	5.9
950.367	7.37
950.541	6.8
950.715	4.56
950.889	5.22
951.063	7.13
951.237	4.88
951.411	6.64
951.585	4.96
951.759	6.25
951.933	6.52
952.107	5.58
952.281	5.88
952.455	4.99
952.629	3.45
952.803	4.61
952.977	5.65
953.151	4.5
953.325	4.91
953.499	5.96
953.672	6.08
953.846	7.59
954.02	7.71
954.194	5.83
954.368	4.54
954.541	6.2
954.715	8.66
954.889	4.4
955.062	5.84
955.236	6.17
955.41	6.02
955.583	4.57
955.757	2.93
955.93	5.75
956.104	8.19
956.278	5.91
956.451	5.53
956.625	5.23
956.798	7.95
956.972	7.71
957.145	6.37
957.319	10.9
957.492	7.03
957.665	7.8
957.839	5.87
958.012	7.25
958.185	7.28
958.359	7.32
958.532	6.31
958.705	5.17
958.879	4.87
959.052	7.23
959.225	4.54
959.398	8.06
959.572	5.63
959.745	7.3
959.918	6.77
960.091	9.05
960.264	5.01
960.438	6.97
960.611	5.71
960.784	8.46
960.957	7.72
961.13	7.62
961.303	4.99
961.476	8.1
961.649	8.1
961.822	8.84
961.995	7.57
962.168	7.08
962.341	9.24
962.514	7.28
962.686	6.33
962.859	6.21
963.032	8.05
963.205	9.83
963.378	5.63
963.551	6.66
963.723	6.08
963.896	8.99
964.069	8.27
964.242	8.79
964.414	8.88
964.587	6.67
964.76	6.73
964.932	9.18
965.105	9.49
965.278	5.31
965.45	7.18
965.623	9.11
965.795	7.52
965.968	7.6
966.14	6.85
966.313	9.1
966.485	6.36
966.658	7.52
966.83	9.26
967.003	7.96
967.175	7.65
967.348	9.59
967.52	8.47
967.692	9.59
967.865	10.76
968.037	8.32
968.209	8.28
968.382	9.41
968.554	8.88
968.726	10.24
968.898	8.8
969.071	9.27
969.243	9.13
969.415	7.65
969.587	9.77
969.759	9.11
969.932	8.81
970.104	10.25
970.276	7.78
970.448	9.18
970.62	10.84
970.792	9.08
970.964	8.26
971.136	11.21
971.308	9.21
971.48	8.72
971.652	7.86
971.824	9.03
971.996	10.5
972.168	9.44
972.339	9.59
972.511	7.45
972.683	8.95
972.855	8.27
973.027	6.56
973.199	12.99
973.37	9.02
973.542	7.53
973.714	10.06
973.886	8.82
974.057	6.74
974.229	9.11
974.401	7.78
974.572	9.23
974.744	10.93
974.915	6.84
975.087	9.79
975.259	10.26
975.43	11.68
975.602	7.79
975.773	8.98
975.945	8.59
976.116	7.96
976.288	7.19
976.459	11.89
976.63	10.24
976.802	7.43
976.973	7.09
977.145	8.05
977.316	10.09
977.487	12.46
977.659	9.23
977.83	10.49
978.001	11.35
978.172	11.76
978.344	9.49
978.515	10.17
978.686	11.56
978.857	10.59
979.028	10.93
979.2	8.28
979.371	13.13
979.542	11.86
979.713	10.56
979.884	5.2
980.055	10.73
980.226	10.96
980.397	6.91
980.568	9.02
980.739	10.89
980.91	12.76
981.081	9.78
981.252	9.17
981.423	10.41
981.594	8.75
981.765	9.26
981.936	11.37
982.106	9.57
982.277	11.92
982.448	8.83
982.619	9.8
982.79	10.12
982.96	7.62
983.131	7.68
983.302	9.22
983.472	11.28
983.643	11.65
983.814	11.35
983.984	9.77
984.155	12.42
984.326	10.82
984.496	11.23
984.667	11.08
984.837	9.88
985.008	13.79
985.178	10.38
985.349	9.25
985.519	14.41
985.69	13.71
985.86	8.84
986.031	14.99
986.201	11.75
986.371	9.13
986.542	7.78
986.712	10.46
986.882	10.1
987.053	10.53
987.223	9.25
987.393	11.76
987.563	13.11
987.734	11.23
987.904	11.55
988.074	9.38
988.244	11.56
988.414	12.79
988.585	10.3
988.755	10.37
988.925	9.77
989.095	13.95
989.265	10.75
989.435	10.21
989.605	12.31
989.775	13.8
989.945	11.73
990.115	9.34
990.285	14.77
990.455	13.76
990.625	11.09
990.795	11.99
990.965	12.9
991.134	12.35
991.304	9.3
991.474	9.78
991.644	10.93
991.814	12.39
991.984	11.23
992.153	12.84
992.323	12.05
992.493	13.41
992.662	9.38
992.832	10.53
993.002	8.97
993.171	12.71
993.341	9.27
993.511	10.79
993.68	15.51
993.85	11.99
994.019	6.24
994.189	9.89
994.358	13.84
994.528	16.35
994.697	8.01
994.867	14.03
995.036	10.55
995.206	12.31
995.375	9.08
995.544	12.95
995.714	15.55
995.883	15.07
996.052	16.91
996.222	10.29
996.391	9.28
996.56	14.2
996.73	12.95
996.899	10.29
997.068	13.63
997.237	13.59
997.406	12.31
997.576	8.28
997.745	19.26
997.914	13.93
998.083	10
998.252	9.67
998.421	15.19
998.59	14.75
998.759	13.95
998.928	11.59
999.097	15.92
999.266	14.93
999.435	13.4
999.604	10.99
999.773	12.57
999.942	13.96
1000.111	12.83
1000.28	14.06
1000.448	17.04
1000.617	17.74
1000.786	12.79
1000.955	9.68
1001.124	15.29
1001.292	13.35
1001.461	9.62
1001.63	11.83
1001.798	15.39
1001.967	14.69
1002.136	10.26
1002.304	13.88
1002.473	21.05
1002.642	14.54
1002.81	10.18
1002.979	9.9
1003.147	15.16
1003.316	12.66
1003.484	13.21
1003.653	18
1003.821	12.09
1003.99	17.93
1004.158	17.04
1004.327	13.28
1004.495	15.17
1004.663	17.56
1004.832	17.01
1005	10.66
1005.168	10.73
1005.337	14.95
1005.505	8.47
1005.673	16.43
1005.842	14.78
1006.01	8.84
1006.178	15.42
1006.346	13.99
1006.514	11.23
1006.683	18.18
1006.851	14.08
1007.019	15.33
1007.187	12.67
1007.355	15.68
1007.523	15.59
1007.691	11.72
1007.859	16.05
1008.027	20.91
1008.195	13.03
1008.363	12.81
1008.531	13.18
1008.699	18
1008.867	13.57
1009.035	20.64
1009.203	18.77
1009.37	12.67
1009.538	14.28
1009.706	20.04
1009.874	13.1
1010.042	17.07
1010.209	14.07
1010.377	12.07
1010.545	18.33
1010.713	23
1010.88	18.45
1011.048	12.58
1011.216	19.24
1011.383	16.96
1011.551	13.88
1011.718	15.57
1011.886	23.51
1012.054	24.29
1012.221	13.33
1012.389	15.91
1012.556	18.08
1012.724	15.47
1012.891	13.9
1013.058	16.66
1013.226	19.24
1013.393	12.13
1013.561	18.06
1013.728	13.85
1013.895	16.55
1014.063	17.1
1014.23	17.71
1014.397	15.84
1014.565	18
1014.732	21.06
1014.899	16.02
1015.066	18.95
1015.233	23.2
1015.401	24.21
1015.568	16.92
1015.735	18.07
1015.902	27.02
1016.069	24.89
1016.236	18.81
1016.403	14.19
1016.57	22.59
1016.737	26.76
1016.904	17.63
1017.071	13.58
1017.238	24.17
1017.405	19.8
1017.572	19.63
1017.739	14.37
1017.906	32.78
1018.073	23.04
1018.24	12.32
1018.407	23.77
1018.573	20.48
1018.74	27.09
1018.907	19.44
1019.074	17.23
1019.241	21
1019.407	25.26
1019.574	12.05
1019.741	18.52
1019.907	30.87
1020.074	19.06
1020.241	17.07
1020.407	10.7
1020.574	10.94
1020.74	23.45
1020.907	11.65
1021.073	17.14
1021.24	27.69
1021.406	18.5
1021.573	16.81
1021.739	16.64
1021.906	25.52
1022.072	17.49
1022.239	16.36
1022.405	15.27
1022.571	17.6
1022.738	31.9
1022.904	16.95
1023.07	22.92
1023.237	20.99
1023.403	24.99
1023.569	23.5
1023.735	20.91
1023.902	26.19
1024.068	32.23
1024.234	18.6
1024.4	20.23
1024.566	23.74
1024.732	21.68
1024.898	26.38
1025.065	17.56
1025.231	17.15
1025.397	18.84
1025.563	24.99
1025.729	16.1
1025.895	26.49
1026.061	26.49
1026.227	21.26
1026.392	26.86
1026.558	21.48
1026.724	27.67
1026.89	15.13
1027.056	28.07
1027.222	21.91
1027.388	32.88
1027.553	19.75
1027.719	10.2
1027.885	24.88
1028.051	18.32
1028.216	14.36
1028.382	20.72
1028.548	27.42
1028.713	24.36
1028.879	14.39
1029.045	21.29
1029.21	29.13
1029.376	32.12
1029.541	25.8
1029.707	23.4
1029.873	31.8
1030.038	23.73
1030.204	24.48
1030.369	17.36
1030.534	26.52
1030.7	30.47
1030.865	34.04
1031.031	19.7
1031.196	26.75
1031.361	29.03
1031.527	21.37
1031.692	25.42
1031.857	33.32
1032.023	23.82
1032.188	32.37
1032.353	24.94
1032.518	15.68
1032.684	26.39
1032.849	17.28
1033.014	24.98
1033.179	30.26
1033.344	20.65
1033.509	17.52
1033.674	20.34
1033.839	23.2
1034.004	30.8
1034.17	19.25
1034.335	31.51
1034.5	32.04
1034.664	37.67
1034.829	20.78
1034.994	25.72
1035.159	19.06
1035.324	32.48
1035.489	27.55
1035.654	18.16
1035.819	47.47
1035.984	39.98
1036.148	13.76
1036.313	31.65
1036.478	30.31
1036.643	26.48
1036.807	23.59
1036.972	27.1
1037.137	52.29
1037.301	36.14
1037.466	28.11
1037.631	30.82
1037.795	21.5
1037.96	24.98
1038.124	40.96
1038.289	26.54
1038.454	23.21
1038.618	30.96
1038.783	15.71
1038.947	23.16
1039.111	23.33
1039.276	43.27
1039.44	21.58
1039.605	45.56
1039.769	37.53
1039.933	33.22
1040.098	33.65
1040.262	36.18
1040.426	36.65
1040.591	27.09
1040.755	35.42
1040.919	23.35
1041.083	48.1
1041.248	32.41
1041.412	33.17
1041.576	28.51
1041.74	32.75
1041.904	32.65
1042.068	30.72
1042.232	34.39
1042.397	46.78
1042.561	26.23
1042.725	34.85
1042.889	36.42
1043.053	22.41
1043.217	27.76
1043.381	27.53
1043.544	26.27
1043.708	40.25
1043.872	36.27
1044.036	31.07
1044.2	32.62
1044.364	36.8
1044.528	43.59
1044.691	129.71
1044.855	41.88
1045.019	34.33
1045.183	32.42
1045.346	38.81
1045.51	35.59
1045.674	37.44
1045.837	43.69
1046.001	37.2
1046.165	45.8
1046.328	47.88
1046.492	21.26
1046.655	29.64
1046.819	46.24
1046.983	45.52
1047.146	26.26
1047.31	35.53
1047.473	23.73
1047.636	27.5
1047.8	50.61
1047.963	37.96
1048.127	15.21
1048.29	51.19
