Data from Reflection_11-18-04-731.txt Node
Date: Fri Mar 08 11:18:04 EST 2024
User: zxiong
Spectrometer: USB4F04538
Trigger mode: 4
Integration Time (sec): 1.000000E0
Scans to average: 1
Electric dark correction enabled: true
Nonlinearity correction enabled: false
Boxcar width: 0
XAxis mode: Wavelengths
Number of Pixels in Spectrum: 3648
>>>>>Begin Spectral Data<<<<<
345.52	4409.09
345.736	4409.09
345.952	4409.09
346.168	523.78
346.384	83.78
346.6	132.34
346.816	-159.17
347.032	328.87
347.248	358.72
347.464	-186.96
347.68	17.38
347.896	48.57
348.112	111.84
348.328	108.45
348.544	249.27
348.76	136.83
348.975	-110.81
349.191	139.05
349.407	120.61
349.623	541.95
349.839	327.08
350.055	-6.91
350.27	2169.39
350.486	183.2
350.702	70.25
350.918	114.4
351.133	89.52
351.349	155.19
351.565	146.92
351.781	-36.63
351.996	11.7
352.212	111.7
352.428	-938.32
352.644	84.11
352.859	142.22
353.075	311.07
353.291	167.83
353.506	668.91
353.722	229.28
353.938	85.47
354.153	116.18
354.369	1948
354.584	249.5
354.8	148.65
355.016	246.14
355.231	-390.91
355.447	308.95
355.662	828.93
355.878	-108.63
356.093	138.94
356.309	729.75
356.524	446.71
356.74	188.03
356.955	46.77
357.171	295.27
357.386	120.79
357.602	169.83
357.817	30.93
358.033	155.01
358.248	65.15
358.464	257.75
358.679	146.15
358.895	41.45
359.11	412.44
359.325	23.64
359.541	1017.79
359.756	159.75
359.972	-10645.45
360.187	465.98
360.402	108.25
360.618	81.73
360.833	432.33
361.048	316.57
361.264	-109.47
361.479	136.59
361.694	199.16
361.909	167.21
362.125	239.9
362.34	46.52
362.555	123.24
362.77	167.24
362.986	-234.35
363.201	23.87
363.416	201.09
363.631	222.49
363.847	48.79
364.062	59.36
364.277	50.9
364.492	145.47
364.707	-287.19
364.922	96.16
365.138	71.31
365.353	161.35
365.568	188.84
365.783	243.07
365.998	393.02
366.213	112.13
366.428	65.43
366.643	235.48
366.858	130.79
367.073	163.63
367.288	83.75
367.503	82.9
367.718	112.28
367.933	244.05
368.148	45.16
368.363	71.33
368.578	419.25
368.793	89.74
369.008	86.94
369.223	-1021.74
369.438	154.91
369.653	111.32
369.868	146.34
370.083	-6.14
370.298	137.46
370.513	100.79
370.728	92.15
370.943	54.34
371.157	204.47
371.372	215.94
371.587	-56.45
371.802	105.64
372.017	73.6
372.232	111.96
372.446	46.9
372.661	139.18
372.876	-5627.27
373.091	154.34
373.306	145.66
373.52	9.04
373.735	139.82
373.95	248.44
374.165	111.86
374.379	49.48
374.594	168.45
374.809	160.53
375.023	59.93
375.238	110.12
375.453	259.25
375.667	207.09
375.882	69.02
376.097	53.58
376.311	76.69
376.526	191.15
376.741	15.7
376.955	203.53
377.17	118.8
377.384	233.42
377.599	98.49
377.813	68.01
378.028	146.03
378.242	107.62
378.457	55.82
378.672	140.13
378.886	99.29
379.101	125.54
379.315	163.37
379.53	7.27
379.744	106.7
379.958	102.58
380.173	29.22
380.387	42.32
380.602	163.94
380.816	186.94
381.031	91
381.245	62.29
381.459	97.4
381.674	8047.95
381.888	88.53
382.103	120.95
382.317	141.4
382.531	79.31
382.746	31.01
382.96	51.03
383.174	103.15
383.388	149.96
383.603	108.11
383.817	46.74
384.031	29.18
384.246	220
384.46	48.81
384.674	237.28
384.888	92.65
385.103	108.12
385.317	51.38
385.531	39.35
385.745	274.12
385.959	111.28
386.174	58.48
386.388	64.79
386.602	84.72
386.816	141.24
387.03	27.37
387.244	28.25
387.458	200.64
387.672	58.21
387.887	25.05
388.101	51.54
388.315	93.16
388.529	101.1
388.743	19.04
388.957	71.78
389.171	110.79
389.385	85.32
389.599	-39.36
389.813	70.03
390.027	136.83
390.241	33.57
390.455	65.26
390.669	104.43
390.883	52.56
391.097	58.14
391.311	83.24
391.525	22.9
391.738	129.18
391.952	119.68
392.166	76.76
392.38	4.42
392.594	82.9
392.808	27.55
393.022	15.63
393.236	54.85
393.449	73.44
393.663	88.37
393.877	22.71
394.091	78.44
394.305	57.35
394.518	84.28
394.732	37.12
394.946	75.94
395.16	95.09
395.373	74.23
395.587	27.49
395.801	70.77
396.015	36.68
396.228	54.59
396.442	42.97
396.656	6.5
396.869	24.75
397.083	60.11
397.297	10.72
397.51	53.15
397.724	101.88
397.938	105.78
398.151	46.82
398.365	28.92
398.578	71.11
398.792	49.72
399.005	22.23
399.219	21.34
399.433	46.36
399.646	163.08
399.86	73.44
400.073	61.1
400.287	50.03
400.5	87.35
400.714	22.31
400.927	24.57
401.141	129.46
401.354	179.5
401.567	76.66
401.781	36.76
401.994	41.19
402.208	75.01
402.421	44.27
402.635	26.81
402.848	41.74
403.061	68.2
403.275	30.18
403.488	20.23
403.701	13.81
403.915	83.35
404.128	67.54
404.341	14.38
404.555	69.7
404.768	20.95
404.981	37.83
405.195	26.55
405.408	3.27
405.621	44.14
405.834	60.49
406.048	31.06
406.261	52.43
406.474	29.25
406.687	24.02
406.9	37.71
407.114	66
407.327	67.39
407.54	48.93
407.753	19.56
407.966	42.84
408.179	32.78
408.392	24.22
408.605	37.72
408.819	40.57
409.032	49.53
409.245	40.77
409.458	43.3
409.671	43.14
409.884	33.87
410.097	30.85
410.31	23.43
410.523	70.01
410.736	31.75
410.949	47.86
411.162	35.09
411.375	0.27
411.588	37.8
411.801	26.95
412.014	27.59
412.227	2.55
412.44	50.55
412.653	19.9
412.865	29.94
413.078	73.39
413.291	31.42
413.504	28.43
413.717	30.94
413.93	33.01
414.143	35.39
414.356	30.92
414.568	22
414.781	44.79
414.994	31.4
415.207	36.94
415.42	20.42
415.632	9.1
415.845	46.27
416.058	17.05
416.271	40.89
416.483	46.62
416.696	26.31
416.909	26.07
417.121	30.99
417.334	31.54
417.547	16.87
417.759	30.54
417.972	37.28
418.185	16.88
418.397	21.86
418.61	16.51
418.823	15.65
419.035	22.4
419.248	42.4
419.46	27.61
419.673	8.3
419.885	5.74
420.098	58.14
420.311	22.35
420.523	22.26
420.736	24.31
420.948	45.59
421.161	16.77
421.373	25.83
421.586	28.73
421.798	33.96
422.01	17.73
422.223	18.41
422.435	17.62
422.648	38.69
422.86	13.38
423.073	18.54
423.285	7.73
423.497	9.75
423.71	-4.81
423.922	42.23
424.134	69.66
424.347	33.29
424.559	8.06
424.771	17.83
424.984	42.35
425.196	26.02
425.408	10.98
425.621	31.97
425.833	23.51
426.045	24.62
426.257	15.64
426.47	22.16
426.682	15.44
426.894	18.6
427.106	21.43
427.318	27.34
427.531	32.68
427.743	23.97
427.955	20.82
428.167	44.19
428.379	10.23
428.591	8.86
428.804	19.1
429.016	12.87
429.228	25.46
429.44	26.28
429.652	9.12
429.864	16.21
430.076	33.21
430.288	29.99
430.5	14.51
430.712	18.3
430.924	25.43
431.136	36.29
431.348	22.14
431.56	10.19
431.772	9.47
431.984	25.18
432.196	13.31
432.408	8.03
432.62	22.25
432.832	29.85
433.044	16.96
433.256	22.41
433.468	22.93
433.679	29.83
433.891	12.49
434.103	12.46
434.315	23.07
434.527	5.76
434.739	13.72
434.95	14.2
435.162	9.57
435.374	18.85
435.586	13.28
435.798	5.6
436.009	22.53
436.221	17.15
436.433	21.9
436.645	8.93
436.856	15.44
437.068	27.61
437.28	15.47
437.491	26.29
437.703	26.49
437.915	26.17
438.126	10.17
438.338	34.52
438.55	10
438.761	12.56
438.973	7.2
439.184	13.4
439.396	14.56
439.608	7.73
439.819	4.38
440.031	18.66
440.242	16.42
440.454	20.33
440.665	16.29
440.877	16.36
441.088	24.09
441.3	31.8
441.511	10.38
441.723	21.21
441.934	29.97
442.146	22.28
442.357	19.29
442.569	21.74
442.78	19.42
442.991	30.39
443.203	13.88
443.414	8.3
443.626	16.33
443.837	26.16
444.048	12.85
444.26	7.74
444.471	26.11
444.682	13.46
444.894	14.91
445.105	14.66
445.316	22.71
445.528	8.75
445.739	15.6
445.95	7.96
446.161	15.52
446.373	7.31
446.584	14.38
446.795	11.56
447.006	17.87
447.217	9.97
447.429	11.78
447.64	6.34
447.851	36.69
448.062	32.89
448.273	8.49
448.484	19.4
448.695	15.52
448.907	26.66
449.118	12.33
449.329	19.2
449.54	20.39
449.751	28.81
449.962	6.88
450.173	11.71
450.384	16.92
450.595	19.03
450.806	8.76
451.017	11.26
451.228	15.23
451.439	14.67
451.65	23.31
451.861	10.99
452.072	25.73
452.283	24.64
452.494	3.59
452.705	11.38
452.915	20.66
453.126	18.59
453.337	12
453.548	7.1
453.759	29.18
453.97	14.2
454.181	20.23
454.391	10.87
454.602	13.05
454.813	19.26
455.024	7.41
455.235	7.42
455.445	21.09
455.656	17.07
455.867	13.24
456.078	12.54
456.288	18.49
456.499	10.54
456.71	11.78
456.921	14.16
457.131	18.93
457.342	12.96
457.553	9.88
457.763	10.88
457.974	9.81
458.184	3.05
458.395	6.01
458.606	9.56
458.816	16.02
459.027	14.57
459.237	13.07
459.448	10.48
459.659	13.63
459.869	24.24
460.08	9.17
460.29	12.9
460.501	10.51
460.711	17.61
460.922	6.39
461.132	11.7
461.343	22.6
461.553	12.88
461.764	9.8
461.974	12.59
462.184	12.39
462.395	18.72
462.605	10.66
462.816	13
463.026	22.71
463.236	8
463.447	14.1
463.657	10.98
463.867	12.92
464.078	13.68
464.288	7.77
464.498	13.37
464.709	15.82
464.919	18.26
465.129	12.11
465.339	5.63
465.55	13.13
465.76	15.94
465.97	10.2
466.18	10.43
466.391	12.44
466.601	14.02
466.811	8.35
467.021	6.9
467.231	11.33
467.441	12.4
467.651	8.03
467.862	7.02
468.072	14.82
468.282	5.96
468.492	8.42
468.702	12.56
468.912	16.99
469.122	16.75
469.332	12.21
469.542	8.03
469.752	16.04
469.962	13.44
470.172	9.45
470.382	9.91
470.592	11.96
470.802	6.54
471.012	9.78
471.222	10.59
471.432	7.65
471.642	11.13
471.852	10.28
472.062	7.02
472.272	13.16
472.482	14.34
472.691	8.8
472.901	10.65
473.111	12.4
473.321	13.85
473.531	7.86
473.741	8.27
473.95	12.12
474.16	11.14
474.37	10.56
474.58	7.67
474.79	14.77
474.999	9.02
475.209	5.92
475.419	7.72
475.628	7.15
475.838	11.25
476.048	7.29
476.258	9.67
476.467	10.91
476.677	8.56
476.886	8.03
477.096	8.39
477.306	11.54
477.515	9.28
477.725	9.09
477.935	7.46
478.144	14.73
478.354	12.53
478.563	9.07
478.773	6.61
478.982	11.35
479.192	9
479.401	6.61
479.611	6.08
479.82	12.16
480.03	9.54
480.239	7.22
480.449	6.85
480.658	10.37
480.868	11.13
481.077	7.58
481.287	9.89
481.496	9.45
481.705	6.69
481.915	9.31
482.124	11.26
482.333	8.5
482.543	6.98
482.752	8.87
482.961	6.89
483.171	9.84
483.38	10.1
483.589	6.04
483.799	7.99
484.008	9.8
484.217	6.4
484.426	5.94
484.636	7.62
484.845	10.3
485.054	11.25
485.263	9.33
485.472	5.39
485.682	6.07
485.891	7.94
486.1	8.78
486.309	6.72
486.518	9.17
486.727	10.22
486.936	4.88
487.146	4.87
487.355	8.37
487.564	10.21
487.773	6.26
487.982	9.34
488.191	9.78
488.4	10.53
488.609	6.07
488.818	8.36
489.027	8.27
489.236	8.42
489.445	5.75
489.654	7.48
489.863	9.1
490.072	11.01
490.281	10.41
490.49	8.26
490.698	6.09
490.907	10.97
491.116	6.95
491.325	7.09
491.534	7.54
491.743	6.71
491.952	7.69
492.16	6.98
492.369	9.73
492.578	5.05
492.787	7.59
492.996	6.45
493.204	7.88
493.413	8.23
493.622	6.55
493.831	7.4
494.039	9.18
494.248	9.62
494.457	7.97
494.665	6.93
494.874	8.41
495.083	9.85
495.291	7.55
495.5	7.62
495.709	8.83
495.917	8.98
496.126	6.39
496.335	7.54
496.543	9.26
496.752	8.32
496.96	9.59
497.169	6.03
497.377	9.08
497.586	7.87
497.794	8.28
498.003	6.36
498.211	6.19
498.42	6.25
498.628	7.06
498.837	7.18
499.045	6.99
499.254	5.42
499.462	8.12
499.671	7.59
499.879	11.59
500.087	6.83
500.296	7.32
500.504	7.11
500.713	7.47
500.921	7.24
501.129	6.85
501.338	7.89
501.546	8.33
501.754	7.93
501.962	6.76
502.171	4.81
502.379	7.85
502.587	7.44
502.795	7.16
503.004	6.74
503.212	9.97
503.42	9.05
503.628	8.15
503.837	6.67
504.045	8.26
504.253	8.28
504.461	6.57
504.669	7
504.877	8.24
505.085	7.69
505.294	7.38
505.502	7.72
505.71	10.44
505.918	8.44
506.126	7.08
506.334	6.64
506.542	9.32
506.75	7.72
506.958	8.05
507.166	5.12
507.374	7.23
507.582	7.45
507.79	6.55
507.998	7.22
508.206	9.87
508.414	8
508.622	7.02
508.83	7.63
509.037	7.35
509.245	8.42
509.453	7.13
509.661	7.21
509.869	8.98
510.077	8.04
510.285	7.22
510.492	5.77
510.7	7.75
510.908	8.01
511.116	7.4
511.324	6.91
511.531	7.51
511.739	7.91
511.947	6.66
512.155	8.08
512.362	8.57
512.57	8.76
512.778	6.42
512.985	6.47
513.193	6.71
513.401	8
513.608	7.39
513.816	6.94
514.024	7.95
514.231	7.9
514.439	6.73
514.646	6.9
514.854	7.57
515.061	8.43
515.269	8.17
515.477	6.72
515.684	8.54
515.892	7.99
516.099	6.77
516.307	6.29
516.514	8.55
516.722	7.64
516.929	5.37
517.136	6.2
517.344	6.95
517.551	7.77
517.759	7.02
517.966	7.34
518.173	7.72
518.381	8.45
518.588	6.44
518.796	5.22
519.003	7.66
519.21	7.89
519.418	6.55
519.625	7.34
519.832	9.47
520.039	8.7
520.247	6.75
520.454	7.09
520.661	8.19
520.868	8.53
521.076	7.9
521.283	7.04
521.49	7.57
521.697	8.05
521.904	7.12
522.112	8.73
522.319	8.18
522.526	8.38
522.733	6.99
522.94	6.3
523.147	8.96
523.354	6.9
523.561	7.26
523.768	6.39
523.975	8.52
524.183	7.9
524.39	8.01
524.597	6.82
524.804	6.09
525.011	8.12
525.218	8
525.425	6.84
525.632	7.09
525.838	8.4
526.045	7.68
526.252	8
526.459	9.79
526.666	10.95
526.873	6.69
527.08	7.64
527.287	8.83
527.494	8.1
527.701	6.23
527.907	7.78
528.114	8.44
528.321	8.58
528.528	7.88
528.735	7.65
528.941	8.19
529.148	8.25
529.355	7.53
529.562	7.83
529.768	10.05
529.975	7.37
530.182	8
530.388	6.9
530.595	8.55
530.802	8.94
531.008	8.5
531.215	7.72
531.422	6.48
531.628	9.15
531.835	7.43
532.042	7.27
532.248	7.91
532.455	8.33
532.661	7.2
532.868	7.66
533.074	8.47
533.281	8.61
533.487	6.7
533.694	7.6
533.9	7.72
534.107	6.62
534.313	7.11
534.52	6.53
534.726	7.68
534.933	9.73
535.139	8.2
535.345	7.82
535.552	10.07
535.758	8.48
535.965	8.04
536.171	7.02
536.377	8.69
536.584	7.74
536.79	7.87
536.996	6.92
537.203	8.7
537.409	10.19
537.615	7.46
537.821	5.3
538.028	8.37
538.234	7.75
538.44	7.57
538.646	7.89
538.853	6.92
539.059	8.54
539.265	7.97
539.471	7.4
539.677	7.85
539.883	9.12
540.09	6.62
540.296	8.53
540.502	7.71
540.708	8.74
540.914	7.68
541.12	7.66
541.326	8.56
541.532	8.64
541.738	7.28
541.944	7.7
542.15	9.01
542.356	8.47
542.562	6.97
542.768	7.54
542.974	7.17
543.18	9.73
543.386	7.43
543.592	6.71
543.798	9.17
544.004	8.44
544.21	6.64
544.415	7.43
544.621	8.6
544.827	9.27
545.033	7.77
545.239	8.2
545.445	7.32
545.651	8.29
545.856	7.15
546.062	7.41
546.268	8.07
546.474	7.92
546.679	8.11
546.885	7.56
547.091	9.23
547.297	8.98
547.502	7.99
547.708	7.43
547.914	8.74
548.119	9.04
548.325	7.4
548.531	7.11
548.736	8.67
548.942	8
549.147	7.53
549.353	7.91
549.559	8.56
549.764	8.67
549.97	7.12
550.175	6.92
550.381	8.71
550.586	8.69
550.792	7.82
550.997	7.87
551.203	8.36
551.408	9.5
551.614	8.06
551.819	7.93
552.025	8.74
552.23	6.97
552.435	7.21
552.641	7.16
552.846	8.59
553.052	8.07
553.257	7.89
553.462	7.6
553.668	8.99
553.873	8.25
554.078	7.62
554.283	7.76
554.489	8.32
554.694	8.31
554.899	7.21
555.105	7.14
555.31	8.57
555.515	8.61
555.72	7.21
555.925	7.3
556.131	8.07
556.336	8.83
556.541	7.39
556.746	7.23
556.951	8.68
557.156	7.36
557.361	7.27
557.567	8.22
557.772	7.87
557.977	8.63
558.182	7.79
558.387	6.78
558.592	7.62
558.797	8.18
559.002	7.45
559.207	6.76
559.412	9.41
559.617	8.19
559.822	7.26
560.027	8.17
560.232	7.75
560.437	8.34
560.642	6.81
560.847	6.91
561.051	7.96
561.256	8.23
561.461	7.14
561.666	6.87
561.871	7.69
562.076	9
562.281	7.22
562.485	7.39
562.69	7.57
562.895	8.19
563.1	6.89
563.305	6.83
563.509	7.75
563.714	7.83
563.919	7.13
564.123	8.44
564.328	8.15
564.533	8.59
564.737	7.19
564.942	7.2
565.147	7.98
565.351	7.24
565.556	7.15
565.761	7.7
565.965	8.68
566.17	7.8
566.374	7.88
566.579	7.24
566.784	8.19
566.988	7.98
567.193	7.35
567.397	7.01
567.602	8.25
567.806	8.43
568.011	7.67
568.215	7.36
568.42	7.86
568.624	7.78
568.828	7.15
569.033	7.18
569.237	7.67
569.442	7.66
569.646	7.53
569.85	7.81
570.055	8.26
570.259	8.16
570.463	7.79
570.668	7.23
570.872	8.21
571.076	8.06
571.281	8.28
571.485	6.61
571.689	8.25
571.893	7.96
572.098	6.84
572.302	6.57
572.506	8.01
572.71	8.05
572.914	7.43
573.119	6.63
573.323	8.16
573.527	8.44
573.731	6.87
573.935	7.69
574.139	7.78
574.343	8.13
574.547	6.9
574.751	7.52
574.955	7.28
575.159	7.62
575.364	7.38
575.568	8.15
575.772	8.15
575.976	7.54
576.18	7.57
576.383	6.92
576.587	7.54
576.791	7.77
576.995	6.75
577.199	7.47
577.403	7.29
577.607	7.18
577.811	7.15
578.015	7.12
578.219	7.2
578.422	8.19
578.626	7.2
578.83	7.4
579.034	8.58
579.238	8.32
579.442	7.95
579.645	8.11
579.849	8.28
580.053	8.5
580.257	7.92
580.46	8.49
580.664	8.15
580.868	8.3
581.071	7.82
581.275	8.05
581.479	8.72
581.682	8.67
581.886	7.27
582.09	7.62
582.293	8.33
582.497	8.66
582.7	7.79
582.904	7.57
583.107	8.59
583.311	8.28
583.515	7.64
583.718	8.53
583.922	7.71
584.125	8.98
584.329	7.59
584.532	8.19
584.735	8
584.939	8.54
585.142	7.71
585.346	7.61
585.549	7.21
585.753	7.97
585.956	6.89
586.159	7.64
586.363	7.72
586.566	7.87
586.769	7.37
586.973	7.07
587.176	8.01
587.379	7.77
587.582	7.43
587.786	7.9
587.989	8.25
588.192	8.58
588.395	8.38
588.599	7.63
588.802	8.08
589.005	7.68
589.208	6.63
589.411	6.58
589.615	7
589.818	7.57
590.021	7.75
590.224	7.78
590.427	8.73
590.63	8.08
590.833	7.31
591.036	7.45
591.239	7.85
591.442	8.32
591.645	7.56
591.848	7.57
592.051	7.82
592.254	7.94
592.457	7.91
592.66	7.63
592.863	8.39
593.066	9.08
593.269	7.12
593.472	7.39
593.675	8.25
593.878	7.18
594.081	7.15
594.284	7.59
594.486	7.61
594.689	7.84
594.892	7.49
595.095	8.09
595.298	8.35
595.5	7.75
595.703	7.94
595.906	8.19
596.109	8.27
596.311	7.91
596.514	7.9
596.717	7.92
596.92	8.23
597.122	8.33
597.325	7.75
597.528	7.24
597.73	8.15
597.933	8.46
598.136	7.63
598.338	7.69
598.541	8.23
598.743	8.65
598.946	7.82
599.148	7.9
599.351	8.66
599.554	7.39
599.756	7.78
599.959	7.47
600.161	8.56
600.363	8.21
600.566	7.64
600.768	7.64
600.971	8.09
601.173	6.98
601.376	6.68
601.578	7.85
601.78	7.82
601.983	7.63
602.185	7.85
602.388	8.27
602.59	8.38
602.792	8.73
602.995	7.94
603.197	8.25
603.399	7.78
603.601	9
603.804	8.54
604.006	8.51
604.208	8.53
604.41	7.74
604.613	8.62
604.815	7.55
605.017	7.88
605.219	8.16
605.421	8.24
605.623	7.85
605.826	8.35
606.028	9.13
606.23	8.11
606.432	7.97
606.634	7.62
606.836	8.12
607.038	7.75
607.24	7.77
607.442	8.91
607.644	8.96
607.846	8.02
608.048	7.37
608.25	8.34
608.452	8.15
608.654	8.23
608.856	7.26
609.058	7.84
609.26	8.46
609.462	7.7
609.664	7.48
609.866	8.41
610.067	7.42
610.269	7.12
610.471	7.4
610.673	7.99
610.875	8.29
611.077	7.8
611.278	8.12
611.48	8.53
611.682	7.81
611.884	8
612.085	8.01
612.287	8.83
612.489	7.38
612.69	7.2
612.892	8.23
613.094	8.26
613.295	7.67
613.497	7.79
613.699	8.37
613.9	7.63
614.102	7.89
614.304	7.41
614.505	6.91
614.707	8.54
614.908	8.55
615.11	7.47
615.311	8.41
615.513	8.38
615.714	7.81
615.916	7.93
616.117	7.38
616.319	8.57
616.52	8.66
616.722	7.41
616.923	7.13
617.124	8.28
617.326	7.81
617.527	7.89
617.729	7.83
617.93	8.12
618.131	8.16
618.333	7.6
618.534	7.7
618.735	8.55
618.937	8
619.138	7.43
619.339	7.68
619.54	8.67
619.742	8.01
619.943	7.96
620.144	8.43
620.345	8.55
620.546	8.35
620.748	8.11
620.949	8.49
621.15	8.26
621.351	8.11
621.552	8.13
621.753	7.25
621.954	8.29
622.155	8.11
622.356	7.51
622.558	7.88
622.759	9
622.96	8.21
623.161	7.92
623.362	7.78
623.563	7.84
623.764	8.1
623.965	7.59
624.166	7.88
624.366	7.57
624.567	8.52
624.768	7.45
624.969	7.49
625.17	8
625.371	7.94
625.572	8.1
625.773	7.65
625.973	7.67
626.174	8.37
626.375	7.83
626.576	7.68
626.777	7.3
626.977	8.13
627.178	8.35
627.379	8.26
627.58	7.97
627.78	7.85
627.981	7.05
628.182	7.57
628.382	7.38
628.583	7.64
628.784	7.77
628.984	7.64
629.185	7.32
629.386	8.28
629.586	7.93
629.787	6.48
629.987	7.57
630.188	8.33
630.388	7.35
630.589	8.14
630.79	8.05
630.99	7.32
631.191	7.35
631.391	7.77
631.591	8.07
631.792	7.66
631.992	7.17
632.193	7.17
632.393	7.85
632.594	8.47
632.794	7.51
632.994	7.47
633.195	7.97
633.395	7.25
633.595	7.23
633.796	7.77
633.996	8.63
634.196	8.06
634.397	8.12
634.597	7.22
634.797	8.76
634.997	8.06
635.198	7.87
635.398	7.56
635.598	7.87
635.798	7.79
635.998	7.55
636.199	7.62
636.399	8.15
636.599	8.62
636.799	7.56
636.999	8.04
637.199	8.2
637.399	8.37
637.599	7.68
637.799	8.88
637.999	9.09
638.199	8.39
638.399	8.51
638.599	7.73
638.799	8.07
638.999	8
639.199	8.13
639.399	7.69
639.599	7.32
639.799	8.15
639.999	7.62
640.199	7.49
640.399	8.44
640.599	8.83
640.799	7.78
640.998	8.15
641.198	7.57
641.398	8.21
641.598	7.59
641.798	7.59
641.997	8.69
642.197	7.55
642.397	8.25
642.597	7.73
642.796	7.81
642.996	7.67
643.196	8.25
643.395	7.79
643.595	7.75
643.795	8.36
643.994	7.56
644.194	7.57
644.394	8.4
644.593	8.02
644.793	7.25
644.992	7.83
645.192	8.41
645.392	8.55
645.591	8.42
645.791	7.14
645.99	7.74
646.19	7.83
646.389	6.97
646.589	7.25
646.788	8.11
646.987	8.14
647.187	8.19
647.386	7.97
647.586	7.87
647.785	7.99
647.984	7.41
648.184	8.04
648.383	7.49
648.582	7.88
648.782	7.67
648.981	8.02
649.18	7.79
649.38	7.31
649.579	7.74
649.778	7.72
649.977	8.15
650.177	7.55
650.376	7.72
650.575	7.84
650.774	7.98
650.973	8.19
651.173	7.59
651.372	8.4
651.571	7.87
651.77	7.86
651.969	7.87
652.168	7.94
652.367	7.68
652.566	8.41
652.765	7.65
652.964	8.38
653.163	8.02
653.362	8.1
653.561	7.66
653.76	8.11
653.959	8.6
654.158	8.39
654.357	7.7
654.556	8.06
654.755	7.97
654.954	7.8
655.153	7.79
655.352	7.92
655.551	7.18
655.749	6.97
655.948	6.58
656.147	7.24
656.346	7.05
656.545	7.49
656.743	6.8
656.942	7.36
657.141	7.25
657.34	8
657.538	7.38
657.737	7.48
657.936	8.15
658.135	7.78
658.333	8.14
658.532	8.04
658.731	8.71
658.929	7.94
659.128	8.1
659.326	7.64
659.525	8.13
659.724	8.72
659.922	7.47
660.121	8.05
660.319	7.69
660.518	8.53
660.716	8.19
660.915	8.16
661.113	8.46
661.312	8.6
661.51	7.84
661.709	8.09
661.907	7.4
662.105	7.95
662.304	8.3
662.502	8.59
662.701	8.43
662.899	8.69
663.097	8.58
663.296	8.67
663.494	7.73
663.692	8.69
663.891	8.38
664.089	8.07
664.287	8.67
664.485	8.15
664.684	8.17
664.882	8.15
665.08	8.49
665.278	8.37
665.476	7.97
665.675	8.26
665.873	8.63
666.071	8.24
666.269	8.88
666.467	8.79
666.665	8.88
666.863	8.59
667.061	8.6
667.259	8.31
667.457	8.24
667.655	8.81
667.853	8.59
668.051	8.47
668.249	8.67
668.447	8.51
668.645	8.14
668.843	8.88
669.041	9.21
669.239	8.62
669.437	8.37
669.635	8.54
669.833	9.06
670.031	8.12
670.229	8.39
670.426	8.49
670.624	8.19
670.822	8.91
671.02	8.28
671.218	8.43
671.415	8.69
671.613	8.71
671.811	8.02
672.009	8.35
672.206	8.43
672.404	8.51
672.602	8.32
672.799	8.82
672.997	8.88
673.195	8.19
673.392	8.62
673.59	8.54
673.788	8.72
673.985	8.62
674.183	9.03
674.38	8.55
674.578	8.77
674.775	8.98
674.973	8.17
675.17	8.39
675.368	9.3
675.565	8.46
675.763	9.67
675.96	8.64
676.158	8.53
676.355	9.33
676.553	8.55
676.75	8.61
676.947	9.17
677.145	8.89
677.342	8.79
677.539	9.61
677.737	9.02
677.934	8.75
678.131	8.96
678.329	9.37
678.526	10.55
678.723	9.19
678.92	9.08
679.118	8.93
679.315	9.5
679.512	9.41
679.709	9.04
679.906	9.23
680.104	9.28
680.301	9.38
680.498	8.94
680.695	8.97
680.892	9.79
681.089	9.39
681.286	9.13
681.483	9.28
681.68	9.32
681.877	8.79
682.075	9.24
682.272	8.97
682.469	8.92
682.665	9.99
682.862	9.01
683.059	8.81
683.256	8.73
683.453	9.41
683.65	9.06
683.847	9.13
684.044	10.2
684.241	9.37
684.438	8.79
684.635	9.29
684.831	9.88
685.028	9.16
685.225	8.61
685.422	9.44
685.619	9.3
685.815	8.95
686.012	8.97
686.209	8.52
686.405	7.82
686.602	6.85
686.799	7.75
686.996	7.07
687.192	7.53
687.389	7.27
687.586	7.86
687.782	7.92
687.979	8.04
688.175	8.25
688.372	7.12
688.568	7.87
688.765	8.22
688.962	7.98
689.158	8.14
689.355	7.59
689.551	8.09
689.748	8.81
689.944	8.42
690.14	8.87
690.337	8.44
690.533	9.36
690.73	8.97
690.926	8.34
691.123	8.62
691.319	8.91
691.515	9.43
691.712	9.69
691.908	9.21
692.104	9.5
692.301	9.6
692.497	9.27
692.693	9.32
692.889	9.54
693.086	9.72
693.282	9.39
693.478	10.79
693.674	10.53
693.87	9.55
694.067	9.92
694.263	10.28
694.459	10.04
694.655	10.06
694.851	10.31
695.047	10.66
695.243	10.63
695.439	10.62
695.635	9.91
695.831	10.2
696.027	9.61
696.224	10.48
696.42	10.96
696.615	10.68
696.811	11.11
697.007	10.31
697.203	10.23
697.399	10.69
697.595	10.5
697.791	10.65
697.987	10.5
698.183	11.06
698.379	11.08
698.575	10.47
698.77	10.88
698.966	10.96
699.162	11.09
699.358	10.53
699.554	11.35
699.749	10.92
699.945	10.42
700.141	11.5
700.337	10.61
700.532	10.39
700.728	11.08
700.924	11
701.119	10.65
701.315	11.2
701.511	10.63
701.706	10.99
701.902	11.24
702.097	11.63
702.293	10.64
702.489	11.16
702.684	10.56
702.88	11.8
703.075	11.24
703.271	11.76
703.466	11.22
703.662	11.81
703.857	11.04
704.053	11.22
704.248	11.82
704.443	12.28
704.639	11.64
704.834	11.79
705.03	12.17
705.225	11.27
705.42	12.13
705.616	12.22
705.811	11.62
706.006	11.64
706.202	12.35
706.397	11.21
706.592	11.8
706.787	12.56
706.983	12.33
707.178	12.33
707.373	11.99
707.568	11.92
707.763	11.97
707.959	11.64
708.154	11.98
708.349	12.06
708.544	12.12
708.739	12.21
708.934	11.94
709.129	12.85
709.324	13.17
709.519	12.52
709.714	11.84
709.909	12.2
710.104	13.04
710.299	12.44
710.494	12.41
710.689	12.84
710.884	13.06
711.079	11.85
711.274	12.68
711.469	12.19
711.664	12.85
711.859	12.73
712.054	12.4
712.249	13.36
712.443	12.66
712.638	12.57
712.833	12.75
713.028	13.24
713.223	12.26
713.417	12.74
713.612	12.87
713.807	13.28
714.002	13.26
714.196	12.3
714.391	12.7
714.586	12.2
714.78	14.61
714.975	12.3
715.17	12.93
715.364	12.15
715.559	12.33
715.754	12.4
715.948	12.32
716.143	12.5
716.337	12.22
716.532	12.68
716.726	12.22
716.921	12.56
717.115	12.48
717.31	12.07
717.504	12.65
717.699	12.23
717.893	11.81
718.088	11.78
718.282	11.5
718.476	11.41
718.671	12.26
718.865	11.39
719.059	11.4
719.254	11.23
719.448	12.4
719.642	19.05
719.837	11.46
720.031	12.02
720.225	12.34
720.419	12.45
720.614	12.09
720.808	12.29
721.002	11.86
721.196	12.49
721.39	11.97
721.585	12.41
721.779	14.38
721.973	12.98
722.167	12.07
722.361	12.39
722.555	13.14
722.749	12.69
722.943	13.13
723.137	13.12
723.331	13.01
723.525	12.41
723.719	12.08
723.913	12.98
724.107	12.05
724.301	12.49
724.495	12.57
724.689	14.23
724.883	12.86
725.077	12.89
725.271	12.1
725.465	13.07
725.659	12.99
725.853	13.06
726.046	12.38
726.24	12.45
726.434	12.92
726.628	13.01
726.822	13.54
727.015	13.35
727.209	13.52
727.403	13.15
727.596	12.48
727.79	13.55
727.984	13.2
728.177	12.72
728.371	12.98
728.565	13.14
728.758	12.94
728.952	13.07
729.146	12.72
729.339	13.23
729.533	14.2
729.726	13.29
729.92	13.12
730.113	13.28
730.307	13.82
730.5	13.49
730.694	14.06
730.887	13.72
731.081	13.06
731.274	13.15
731.468	13.38
731.661	14.21
731.854	14.02
732.048	13.41
732.241	13.7
732.435	14.53
732.628	13.53
732.821	14.2
733.014	13.92
733.208	15.12
733.401	14.45
733.594	14.57
733.788	13.92
733.981	13.78
734.174	15.01
734.367	13.72
734.56	14.76
734.754	15.62
734.947	14.64
735.14	14.5
735.333	14.09
735.526	15.77
735.719	15.2
735.912	14.62
736.105	14.51
736.298	15.39
736.491	14.77
736.684	14.51
736.877	14.55
737.07	15.42
737.263	15.01
737.456	14.7
737.649	14.69
737.842	14.97
738.035	15.44
738.228	14.17
738.421	14.72
738.614	15.06
738.807	14.29
739	14.92
739.192	14.69
739.385	15.19
739.578	14.17
739.771	14.29
739.964	13.89
740.156	14.7
740.349	14.92
740.542	14.84
740.735	14.63
740.927	14.32
741.12	15.28
741.313	14.7
741.505	14.95
741.698	15.23
741.891	15.41
742.083	14.04
742.276	15.5
742.468	15.83
742.661	15.65
742.854	15.13
743.046	14.7
743.239	14.5
743.431	14.83
743.624	14.38
743.816	14.66
744.009	15.51
744.201	14.61
744.393	15.33
744.586	15.3
744.778	15.69
744.971	15.3
745.163	15.47
745.355	15.15
745.548	16.24
745.74	15.91
745.932	15.67
746.125	14.86
746.317	15.69
746.509	16.18
746.702	15.77
746.894	15.02
747.086	16.08
747.278	15.44
747.471	15.21
747.663	15.53
747.855	15.57
748.047	15.31
748.239	15.58
748.431	15.52
748.623	14.92
748.815	15.72
749.008	15.35
749.2	15.17
749.392	14.96
749.584	15.6
749.776	15.25
749.968	15.55
750.16	15.43
750.352	15.66
750.544	14.92
750.736	14.27
750.928	14.94
751.12	16.37
751.311	15.17
751.503	15.54
751.695	15.89
751.887	16.07
752.079	15.61
752.271	15.21
752.463	15.79
752.654	15.25
752.846	15.31
753.038	15.31
753.23	15.45
753.421	16.37
753.613	15.63
753.805	15.69
753.997	15.41
754.188	14.95
754.38	15.15
754.572	15.24
754.763	15.6
754.955	15.24
755.146	14.85
755.338	15.29
755.53	16.76
755.721	15.98
755.913	14.96
756.104	14.88
756.296	15.37
756.487	14.97
756.679	15.38
756.87	15.06
757.062	16.23
757.253	15.28
757.445	15.24
757.636	15.89
757.827	15.6
758.019	15.94
758.21	14.32
758.401	14.15
758.593	14.28
758.784	14.45
758.975	11.87
759.167	10.41
759.358	9.51
759.549	8.15
759.74	7.42
759.932	6.43
760.123	5.9
760.314	6.51
760.505	5.32
760.696	5.61
760.888	5.75
761.079	6.93
761.27	7.15
761.461	6.61
761.652	6.88
761.843	7.96
762.034	7.16
762.225	7.56
762.416	7.03
762.607	6.36
762.798	6.56
762.989	6.79
763.18	8.57
763.371	7.39
763.562	7.82
763.753	7.31
763.944	7.61
764.135	7.66
764.326	8.8
764.517	8.73
764.708	9.39
764.899	9.75
765.089	9.15
765.28	9.41
765.471	10.29
765.662	11.49
765.853	11.5
766.043	11.07
766.234	11.38
766.425	11.81
766.615	11.61
766.806	12.6
766.997	12.61
767.187	13.24
767.378	13.38
767.569	13.49
767.759	13.18
767.95	13.83
768.141	14.19
768.331	14.05
768.522	14.01
768.712	14.79
768.903	14.26
769.093	14.21
769.284	15.09
769.474	14.92
769.665	14.24
769.855	13.99
770.046	15.94
770.236	14.72
770.426	14.54
770.617	14.29
770.807	14.48
770.998	15.7
771.188	14.32
771.378	14.85
771.569	15.2
771.759	14.7
771.949	14.34
772.139	14.9
772.33	14.83
772.52	14.68
772.71	14.15
772.9	14.15
773.09	15.01
773.281	14.97
773.471	14.74
773.661	14.65
773.851	15.08
774.041	15.42
774.231	14.38
774.421	15.15
774.611	14.93
774.802	14.9
774.992	14.17
775.182	14.22
775.372	15.9
775.562	15.23
775.752	14.94
775.942	14.9
776.131	15.48
776.321	15.05
776.511	15.2
776.701	14.34
776.891	16.02
777.081	15.65
777.271	14.52
777.461	14.41
777.651	15.32
777.84	15.33
778.03	14.41
778.22	14.64
778.41	14.07
778.599	15.84
778.789	15.23
778.979	13.84
779.169	15.06
779.358	15.13
779.548	14.84
779.738	14.36
779.927	15.17
780.117	14.19
780.307	14.35
780.496	14.5
780.686	16.07
780.875	15.45
781.065	14.65
781.254	13.48
781.444	15.49
781.633	14.8
781.823	14.3
782.012	14.32
782.202	16.19
782.391	15.41
782.581	14.21
782.77	14.96
782.96	14.99
783.149	14.65
783.338	14.7
783.528	14.01
783.717	15.25
783.906	14.97
784.096	14.83
784.285	13.81
784.474	14.62
784.663	15.62
784.853	13.85
785.042	13.9
785.231	14.65
785.42	14.17
785.61	14.5
785.799	14.96
785.988	15.03
786.177	14.67
786.366	13.72
786.555	15.05
786.744	14.41
786.933	15.17
787.122	14.28
787.312	14.4
787.501	14.32
787.69	14.77
787.879	15.17
788.068	13.44
788.257	14.7
788.445	14.45
788.634	14.87
788.823	13.45
789.012	13.77
789.201	14.9
789.39	14.21
789.579	14.65
789.768	15.38
789.957	15.27
790.145	14.46
790.334	13.91
790.523	14.17
790.712	14.76
790.9	14.29
791.089	14.24
791.278	14.28
791.467	14.91
791.655	15
791.844	13.79
792.033	15.52
792.221	14.98
792.41	13.94
792.599	13.1
792.787	14.03
792.976	13.11
793.164	13.63
793.353	13.61
793.541	14.15
793.73	15.13
793.918	12.86
794.107	13.54
794.295	14.9
794.484	14.25
794.672	14.18
794.861	13.55
795.049	14.14
795.238	13.9
795.426	13.39
795.614	14.1
795.803	14.52
795.991	14.91
796.179	12.83
796.368	13.91
796.556	14.06
796.744	14.69
796.932	14.02
797.121	13.83
797.309	13.45
797.497	14.46
797.685	13.52
797.874	13.22
798.062	14.35
798.25	13.95
798.438	12.51
798.626	12.83
798.814	14.28
799.002	13.42
799.19	13.07
799.378	13.26
799.566	14.16
799.755	13.29
799.943	13.69
800.131	13.39
800.318	14.31
800.506	14.37
800.694	13.14
800.882	13.45
801.07	13.51
801.258	14.76
801.446	13.35
801.634	14.74
801.822	14.03
802.01	13.79
802.197	13.61
802.385	13.16
802.573	14.26
802.761	13.8
802.949	13.43
803.136	12.69
803.324	13.3
803.512	14.27
803.699	13.25
803.887	12.39
804.075	13.37
804.262	13.55
804.45	13.29
804.638	12.55
804.825	13.21
805.013	13.77
805.201	13.79
805.388	13.23
805.576	13.51
805.763	13.13
805.951	12.49
806.138	13.48
806.326	13.64
806.513	13.37
806.701	13.08
806.888	13.35
807.075	13.29
807.263	14.56
807.45	12.96
807.638	12.93
807.825	13.55
808.012	13.38
808.2	12.53
808.387	13.09
808.574	13.25
808.761	13.19
808.949	12.79
809.136	12.12
809.323	12.56
809.51	12.71
809.698	13.17
809.885	12.93
810.072	13.7
810.259	13.06
810.446	12.56
810.633	11.75
810.82	12.35
811.008	13.3
811.195	12.95
811.382	12.39
811.569	13.57
811.756	13.33
811.943	12.44
812.13	12.48
812.317	14.25
812.504	11.74
812.691	12.1
812.878	12.08
813.064	12.73
813.251	11.6
813.438	11.28
813.625	12.13
813.812	13
813.999	12.23
814.186	12.24
814.372	11.37
814.559	12.17
814.746	11.69
814.933	11.08
815.12	11.64
815.306	12.55
815.493	12.34
815.68	10.37
815.866	11.14
816.053	11.33
816.24	11.91
816.426	10.78
816.613	10.81
816.799	11.26
816.986	12.02
817.173	10.81
817.359	10.08
817.546	11.87
817.732	11.98
817.919	11.08
818.105	10.37
818.292	12.54
818.478	12
818.665	11.05
818.851	10.87
819.037	11.82
819.224	10.85
819.41	10.64
819.597	10.91
819.783	13.15
819.969	11.99
820.156	11.49
820.342	11.56
820.528	13.62
820.714	11.21
820.901	11.64
821.087	10.89
821.273	10.98
821.459	12.17
821.646	10.47
821.832	10.64
822.018	11.44
822.204	11.45
822.39	10.89
822.576	10.24
822.762	10.82
822.948	11.02
823.134	10.54
823.32	10.31
823.507	11.06
823.693	11.36
823.879	11.78
824.065	11.33
824.25	11.08
824.436	11.84
824.622	12.21
824.808	11.35
824.994	12.94
825.18	12.84
825.366	10.64
825.552	10.94
825.738	11.84
825.923	11.99
826.109	11.8
826.295	10.89
826.481	11.73
826.667	12.11
826.852	10.98
827.038	11.13
827.224	11.76
827.409	11.26
827.595	9.89
827.781	11.34
827.966	11
828.152	11.21
828.338	10.54
828.523	9.89
828.709	12.73
828.894	11.54
829.08	10.6
829.266	10.76
829.451	11.45
829.637	11.96
829.822	10.76
830.008	11.54
830.193	11.14
830.378	11.77
830.564	10.77
830.749	10.36
830.935	11.43
831.12	10.32
831.305	10.63
831.491	11.48
831.676	11.23
831.861	10.52
832.047	10.39
832.232	9.6
832.417	10.63
832.602	11.91
832.788	10.75
832.973	10.92
833.158	11.72
833.343	11.31
833.528	10.77
833.714	11.39
833.899	10.47
834.084	12.16
834.269	10.37
834.454	10.92
834.639	11.5
834.824	11.4
835.009	10.81
835.194	11.82
835.379	11.98
835.564	12.22
835.749	10.63
835.934	10.78
836.119	10.75
836.304	12.34
836.489	11.23
836.674	12.4
836.859	11.75
837.044	12.62
837.228	11.56
837.413	9.92
837.598	11.2
837.783	12.15
837.968	10.86
838.152	11.15
838.337	11.19
838.522	11.5
838.707	12.21
838.891	11.3
839.076	11.18
839.261	10.37
839.445	11.65
839.63	11.12
839.815	11.87
839.999	12.05
840.184	11.06
840.368	10.27
840.553	11.51
840.737	11.27
840.922	10.02
841.106	11.11
841.291	11.46
841.475	12.07
841.66	11.89
841.844	10.75
842.029	11.28
842.213	12.75
842.397	10.92
842.582	9.47
842.766	9.91
842.951	11.39
843.135	11.02
843.319	10.2
843.504	12.28
843.688	12.5
843.872	11.05
844.056	10.79
844.241	11.47
844.425	11.87
844.609	11.66
844.793	10.79
844.977	10.66
845.161	11.2
845.346	10.89
845.53	11.47
845.714	12.12
845.898	11.52
846.082	10.63
846.266	11.19
846.45	10.87
846.634	11.63
846.818	10.26
847.002	11.31
847.186	11.39
847.37	11.07
847.554	10.36
847.738	10.97
847.922	10.96
848.106	11.84
848.29	10.38
848.473	10.7
848.657	11.38
848.841	10.28
849.025	9.76
849.209	9.92
849.392	10.68
849.576	10.89
849.76	9.43
849.944	10.34
850.127	10.52
850.311	11.52
850.495	9.78
850.678	9.9
850.862	10.75
851.046	9.79
851.229	11.09
851.413	9.75
851.596	11.07
851.78	11
851.964	9.76
852.147	9.47
852.331	12.33
852.514	11.54
852.698	10.75
852.881	10.09
853.065	9.52
853.248	10.26
853.431	10.09
853.615	9.74
853.798	10.59
853.982	9.51
854.165	9.11
854.348	9.45
854.532	10.01
854.715	10.21
854.898	9.25
855.081	9.72
855.265	10.65
855.448	11.26
855.631	8.64
855.814	9.48
855.997	8.97
856.181	10.54
856.364	9.74
856.547	9.53
856.73	10.84
856.913	11.42
857.096	10.91
857.279	11.07
857.462	11.27
857.645	10.7
857.828	11.19
858.011	10.3
858.194	11.39
858.377	9.97
858.56	9.61
858.743	10.27
858.926	10.67
859.109	10.14
859.292	9.72
859.475	9.42
859.658	11.64
859.841	10.05
860.023	10.39
860.206	9.72
860.389	11.6
860.572	9.69
860.755	9.48
860.937	10.41
861.12	10.16
861.303	11.45
861.486	9.73
861.668	10.37
861.851	9.68
862.034	10.61
862.216	9.58
862.399	10.16
862.581	11.94
862.764	10.74
862.947	9.94
863.129	9.33
863.312	10.83
863.494	10.93
863.677	13.12
863.859	9.32
864.042	9.25
864.224	9.71
864.406	10.17
864.589	9.17
864.771	8.79
864.954	10.41
865.136	9.38
865.318	8.96
865.501	11.61
865.683	9.77
865.865	7.37
866.048	8.09
866.23	10.46
866.412	10.49
866.594	8.29
866.777	9.04
866.959	8.87
867.141	9.84
867.323	9.36
867.505	8.02
867.687	9.74
867.869	10.57
868.052	9.66
868.234	9.83
868.416	10.88
868.598	9.77
868.78	10.36
868.962	9.32
869.144	10.08
869.326	10.3
869.508	9.81
869.69	8.64
869.872	10.45
870.054	10.87
870.236	8.65
870.417	8.86
870.599	10.67
870.781	10.61
870.963	9.04
871.145	9.83
871.327	11.36
871.508	10.36
871.69	9
871.872	9.9
872.054	9.74
872.235	10.02
872.417	9.9
872.599	9.16
872.78	10.85
872.962	9.4
873.144	9.26
873.325	9.9
873.507	9.53
873.689	11.97
873.87	9.35
874.052	9.92
874.233	10.23
874.415	11.09
874.596	9.07
874.778	9.06
874.959	10.19
875.141	10.64
875.322	7.87
875.503	8.9
875.685	9.9
875.866	10.34
876.048	8.51
876.229	8.75
876.41	9.66
876.592	10.31
876.773	9.79
876.954	8.83
877.136	9.75
877.317	8.97
877.498	8.61
877.679	9.52
877.86	9.6
878.042	10.3
878.223	8.78
878.404	10.88
878.585	10.14
878.766	9.87
878.947	10.23
879.128	8.77
879.309	9.88
879.49	10.33
879.672	9.08
879.853	8.84
880.034	9.14
880.215	10.65
880.396	9.29
880.576	8.94
880.757	9.94
880.938	10.84
881.119	8.21
881.3	8.43
881.481	10.27
881.662	9.54
881.843	8.73
882.023	8.65
882.204	10.37
882.385	10.13
882.566	8.84
882.747	8.56
882.927	10.26
883.108	10.12
883.289	9.62
883.469	8.52
883.65	9.15
883.831	9.84
884.011	9.44
884.192	8.49
884.373	9.82
884.553	9.09
884.734	9.04
884.914	9.38
885.095	13.01
885.275	8.98
885.456	8.87
885.636	7.74
885.817	10.07
885.997	10.37
886.178	7.67
886.358	8.66
886.538	10.47
886.719	11.25
886.899	8.56
887.08	8.62
887.26	9.17
887.44	9.83
887.621	8.43
887.801	8.57
887.981	8.13
888.161	9.49
888.342	8.71
888.522	8.65
888.702	9.83
888.882	9.16
889.062	8.55
889.242	8.64
889.423	8.77
889.603	10.06
889.783	8.98
889.963	10.06
890.143	9.82
890.323	8.97
890.503	8.01
890.683	8.43
890.863	9.06
891.043	8.24
891.223	8.84
891.403	6.58
891.583	9.31
891.763	9.37
891.943	8.32
892.122	9.24
892.302	9.24
892.482	10.02
892.662	8.94
892.842	8.35
893.022	8.73
893.201	10.13
893.381	8.33
893.561	7.68
893.741	8.17
893.92	7.83
894.1	9.18
894.28	8.72
894.459	9.35
894.639	8.34
894.819	8.63
894.998	8.62
895.178	9.01
895.357	8.54
895.537	7.94
895.716	6.94
895.896	8.25
896.075	8.46
896.255	8.03
896.434	6.69
896.614	9.93
896.793	7.45
896.973	7.69
897.152	6.12
897.331	7.58
897.511	8.39
897.69	7.12
897.87	8
898.049	8.11
898.228	8.61
898.407	7.33
898.587	6.99
898.766	8.16
898.945	7.85
899.124	7.08
899.304	7.71
899.483	7.8
899.662	7.52
899.841	7.23
900.02	7.22
900.199	7.35
900.378	8.35
900.557	7.27
900.737	6.6
900.916	7.18
901.095	6.42
901.274	7.75
901.453	6.27
901.632	7.58
901.811	7.32
901.989	7.13
902.168	6.09
902.347	7.35
902.526	6.83
902.705	7.3
902.884	8.43
903.063	8.82
903.242	8.2
903.42	8.36
903.599	7.72
903.778	7.57
903.957	7.21
904.135	8.01
904.314	8.36
904.493	9.34
904.672	7.57
904.85	7.87
905.029	9.28
905.207	6.91
905.386	7.77
905.565	7.26
905.743	7.88
905.922	9.12
906.1	7.44
906.279	6.66
906.457	7.19
906.636	7.96
906.814	8.62
906.993	6.9
907.171	6.46
907.35	7.43
907.528	9.25
907.707	7.98
907.885	6.71
908.063	6.82
908.242	8.49
908.42	5.87
908.598	6.92
908.777	7.78
908.955	7.91
909.133	6.8
909.311	7.27
909.49	7.54
909.668	8.15
909.846	5.93
910.024	6.84
910.202	7.15
910.38	7.13
910.559	6.6
910.737	7.46
910.915	7.58
911.093	7.95
911.271	7.18
911.449	6.67
911.627	7.68
911.805	8.24
911.983	7.15
912.161	6.36
912.339	6.43
912.517	7.85
912.695	7.4
912.872	6.66
913.05	8.83
913.228	8.17
913.406	7.53
913.584	7.01
913.762	8.73
913.939	8.01
914.117	6.44
914.295	8.4
914.473	8.21
914.65	7.98
914.828	6.9
915.006	6.44
915.184	8.62
915.361	7.26
915.539	7.31
915.716	6.61
915.894	8.51
916.072	7.68
916.249	7.54
916.427	6.94
916.604	7.91
916.782	8.03
916.959	6.75
917.137	7.04
917.314	7.57
917.492	7.02
917.669	7.63
917.847	6.32
918.024	6.44
918.201	8.21
918.379	7.34
918.556	7.08
918.733	7.87
918.911	6.73
919.088	6.5
919.265	8.33
919.442	8.03
919.62	8.47
919.797	7.07
919.974	7.38
920.151	8.25
920.328	7.61
920.506	7.73
920.683	8.21
920.86	7.85
921.037	8.75
921.214	7.64
921.391	6.66
921.568	7.15
921.745	8.16
921.922	7.78
922.099	6.46
922.276	7.23
922.453	6.9
922.63	6.21
922.807	6.87
922.984	8.23
923.161	7.9
923.338	8.27
923.514	6.58
923.691	7.66
923.868	9.31
924.045	7.62
924.222	7.15
924.399	6.69
924.575	7.63
924.752	7.05
924.929	6.21
925.105	7.18
925.282	6.66
925.459	7.15
925.635	8.22
925.812	8.95
925.989	7.91
926.165	7.47
926.342	7.6
926.518	8.18
926.695	7.03
926.871	7.68
927.048	6.98
927.224	7.47
927.401	7.57
927.577	6.86
927.754	6.74
927.93	7.89
928.107	6.92
928.283	5.24
928.459	6.72
928.636	7.06
928.812	7.33
928.988	6.86
929.165	5.66
929.341	6.26
929.517	6.13
929.693	8.73
929.87	5.74
930.046	7.36
930.222	6.76
930.398	5.97
930.574	5.72
930.751	5.78
930.927	6.53
931.103	5.08
931.279	5.73
931.455	7.03
931.631	5.63
931.807	4.49
931.983	3.72
932.159	6.5
932.335	5.25
932.511	3.77
932.687	4.46
932.863	4.02
933.039	5.14
933.215	5.09
933.391	3.89
933.566	4.6
933.742	4.89
933.918	4.03
934.094	4.08
934.27	5.89
934.445	4.54
934.621	4.7
934.797	3.73
934.973	3.84
935.148	3.6
935.324	4.21
935.5	4.01
935.675	4.83
935.851	4.91
936.027	3.19
936.202	4.82
936.378	6.47
936.553	4.38
936.729	6.14
936.904	4.58
937.08	4.74
937.255	5.08
937.431	4.14
937.606	4.71
937.782	4.21
937.957	7.51
938.133	6.09
938.308	4.26
938.483	5.43
938.659	4.65
938.834	5.06
939.009	3.65
939.185	6.14
939.36	4.67
939.535	3.97
939.71	5.57
939.886	5.22
940.061	4.65
940.236	4.68
940.411	4.48
940.586	5.32
940.761	6.45
940.937	4.86
941.112	4.05
941.287	5.22
941.462	4.49
941.637	3.32
941.812	5.28
941.987	3.82
942.162	4.03
942.337	5.11
942.512	3.43
942.687	6.22
942.862	2.99
943.037	3.85
943.212	4.39
943.386	5.29
943.561	4.73
943.736	4.95
943.911	5.49
944.086	4.52
944.26	4.54
944.435	4.07
944.61	3.45
944.785	4.7
944.959	5.82
945.134	3.92
945.309	3.9
945.483	3.32
945.658	3.84
945.833	3.26
946.007	2.78
946.182	4.93
946.357	4.18
946.531	4.97
946.706	3.58
946.88	5.53
947.055	5.91
947.229	2.96
947.404	3.51
947.578	3.38
947.752	5.98
947.927	3.4
948.101	4.35
948.276	4.85
948.45	6.86
948.624	6.92
948.799	3.35
948.973	3.89
949.147	4.66
949.321	3.09
949.496	4.87
949.67	6.44
949.844	3.42
950.018	4.94
950.193	4.87
950.367	6.17
950.541	6.7
950.715	4.88
950.889	6.35
951.063	5.9
951.237	4.92
951.411	5.3
951.585	5.24
951.759	3.91
951.933	7.1
952.107	4.65
952.281	5.33
952.455	4.6
952.629	4.24
952.803	4.28
952.977	4.89
953.151	5.35
953.325	4.79
953.499	5.62
953.672	2.97
953.846	6
954.02	6.39
954.194	5.17
954.368	4.98
954.541	6.98
954.715	8.12
954.889	4.9
955.062	4.87
955.236	3.55
955.41	6.13
955.583	4.44
955.757	4.95
955.93	7.1
956.104	6.95
956.278	4.88
956.451	4.82
956.625	4.78
956.798	7.45
956.972	6.47
957.145	4.77
957.319	11.11
957.492	9.12
957.665	7.25
957.839	5.25
958.012	5.95
958.185	6.92
958.359	7.5
958.532	6.11
958.705	5.41
958.879	4.08
959.052	6.41
959.225	4.59
959.398	7.99
959.572	4.37
959.745	4.07
959.918	5.81
960.091	7.63
960.264	5.68
960.438	6.02
960.611	5.6
960.784	8.84
960.957	7.06
961.13	6.91
961.303	4.05
961.476	5.87
961.649	8.9
961.822	6.67
961.995	4.97
962.168	5.79
962.341	6.9
962.514	5.86
962.686	6.88
962.859	6.3
963.032	8.07
963.205	7
963.378	5.24
963.551	5.16
963.723	4.46
963.896	7.58
964.069	7.63
964.242	7.5
964.414	6.31
964.587	4.72
964.76	6.64
964.932	7.12
965.105	9.45
965.278	5.69
965.45	6.82
965.623	10.13
965.795	7.96
965.968	5.32
966.14	6.59
966.313	7.62
966.485	7.71
966.658	6.98
966.83	7.29
967.003	6.17
967.175	7.64
967.348	6.99
967.52	6.13
967.692	10.01
967.865	10.67
968.037	7.81
968.209	6.8
968.382	10.59
968.554	7.93
968.726	9.26
968.898	6.84
969.071	7.94
969.243	8.73
969.415	8.6
969.587	8.96
969.759	7.45
969.932	8
970.104	7.64
970.276	6.09
970.448	9.17
970.62	9.29
970.792	8.44
970.964	7.93
971.136	8.55
971.308	8.92
971.48	8.32
971.652	5.96
971.824	8.75
971.996	12
972.168	7.5
972.339	8.68
972.511	7.99
972.683	6.08
972.855	10.47
973.027	6.29
973.199	12.1
973.37	10.12
973.542	8.92
973.714	10.09
973.886	7.55
974.057	7.28
974.229	8.16
974.401	7.2
974.572	9.42
974.744	8.1
974.915	7.68
975.087	6.5
975.259	8.75
975.43	8.99
975.602	5.37
975.773	7.2
975.945	10.12
976.116	6.41
976.288	8.04
976.459	12.09
976.63	9.75
976.802	7.46
976.973	5.83
977.145	7.62
977.316	9.74
977.487	20.62
977.659	7.58
977.83	9.47
978.001	10.37
978.172	10.33
978.344	8.7
978.515	6.84
978.686	10.14
978.857	8.91
979.028	8.8
979.2	8.58
979.371	8.95
979.542	8.33
979.713	8.67
979.884	7.54
980.055	9.42
980.226	11.22
980.397	6.94
980.568	6.34
980.739	9.68
980.91	11.93
981.081	9.76
981.252	7.36
981.423	9.3
981.594	9.44
981.765	8.36
981.936	12.45
982.106	9.64
982.277	10.52
982.448	7.31
982.619	12.97
982.79	8.53
982.96	8.24
983.131	10.31
983.302	7.99
983.472	8.27
983.643	11.68
983.814	10.57
983.984	9.41
984.155	11.64
984.326	9.95
984.496	8.21
984.667	10.51
984.837	12.13
985.008	11.41
985.178	12.14
985.349	5.58
985.519	9.45
985.69	11.69
985.86	8.27
986.031	11.28
986.201	9.84
986.371	7.13
986.542	10.18
986.712	10.49
986.882	10.5
987.053	10.46
987.223	9.65
987.393	10.95
987.563	13.3
987.734	9.72
987.904	13.38
988.074	9.1
988.244	10.86
988.414	13.67
988.585	7.81
988.755	7.84
988.925	7.39
989.095	12.81
989.265	9.8
989.435	11.97
989.605	9.07
989.775	12.91
989.945	12.14
990.115	8.25
990.285	8.55
990.455	12.28
990.625	8.59
990.795	8.82
990.965	10.21
991.134	11.21
991.304	10.95
991.474	8.77
991.644	12.68
991.814	11.66
991.984	12.18
992.153	11.38
992.323	12.9
992.493	14.15
992.662	8.7
992.832	11.75
993.002	10.15
993.171	11.78
993.341	8.66
993.511	5.95
993.68	11.99
993.85	8.64
994.019	6.29
994.189	9.62
994.358	12.23
994.528	12.94
994.697	6.33
994.867	12.87
995.036	10.72
995.206	9.53
995.375	9
995.544	14.2
995.714	17.88
995.883	13.62
996.052	15.05
996.222	7.71
996.391	9.06
996.56	15.87
996.73	13.12
996.899	11.17
997.068	14.76
997.237	15.8
997.406	12.1
997.576	6.27
997.745	16.84
997.914	12.69
998.083	8.93
998.252	11.62
998.421	14.76
998.59	15.35
998.759	9.43
998.928	7.49
999.097	13.42
999.266	12.97
999.435	11.28
999.604	10.15
999.773	12.61
999.942	14.27
1000.111	13.15
1000.28	11.1
1000.448	15.15
1000.617	13.01
1000.786	16.53
1000.955	9.72
1001.124	16.64
1001.292	14.53
1001.461	10.36
1001.63	10.45
1001.798	9.94
1001.967	12.31
1002.136	11.5
1002.304	16.56
1002.473	19.31
1002.642	14.59
1002.81	6.58
1002.979	7.12
1003.147	16.14
1003.316	11.31
1003.484	10.6
1003.653	15.86
1003.821	10.98
1003.99	16.2
1004.158	15.83
1004.327	13.69
1004.495	16.31
1004.663	21.87
1004.832	16.23
1005	14.19
1005.168	14.8
1005.337	13.4
1005.505	9.23
1005.673	17.47
1005.842	17.86
1006.01	11.4
1006.178	14.41
1006.346	10.63
1006.514	17.72
1006.683	12.99
1006.851	13.03
1007.019	19.44
1007.187	17.08
1007.355	17.61
1007.523	10.89
1007.691	13.42
1007.859	17.67
1008.027	19.55
1008.195	13.58
1008.363	9.92
1008.531	11.01
1008.699	17.88
1008.867	13.22
1009.035	16.96
1009.203	18.38
1009.37	18.77
1009.538	14.58
1009.706	22.24
1009.874	16.63
1010.042	19.8
1010.209	13.86
1010.377	10.41
1010.545	19.41
1010.713	22.72
1010.88	11.76
1011.048	11.07
1011.216	20.01
1011.383	17.68
1011.551	16.55
1011.718	13.49
1011.886	18.42
1012.054	24.35
1012.221	19.74
1012.389	19.4
1012.556	20.23
1012.724	14.17
1012.891	12.21
1013.058	13.5
1013.226	17.63
1013.393	7.62
1013.561	19.1
1013.728	12.35
1013.895	20.19
1014.063	11.99
1014.23	14.1
1014.397	16.1
1014.565	18.96
1014.732	23.03
1014.899	9.17
1015.066	17.92
1015.233	23.27
1015.401	21.26
1015.568	18.18
1015.735	18.24
1015.902	25.75
1016.069	23.71
1016.236	18.57
1016.403	9.66
1016.57	20.06
1016.737	29.16
1016.904	19.37
1017.071	13.02
1017.238	19.91
1017.405	16.14
1017.572	15.73
1017.739	20.36
1017.906	32.74
1018.073	24.22
1018.24	18.71
1018.407	17.29
1018.573	18.09
1018.74	28.25
1018.907	18.08
1019.074	13.63
1019.241	16.26
1019.407	29.16
1019.574	12.74
1019.741	15.66
1019.907	31.16
1020.074	16.14
1020.241	17.36
1020.407	16.76
1020.574	15.85
1020.74	16.82
1020.907	8.41
1021.073	20.23
1021.24	28.46
1021.406	16.83
1021.573	15.01
1021.739	19.18
1021.906	26.6
1022.072	25.83
1022.239	18.56
1022.405	15.22
1022.571	26.68
1022.738	27.98
1022.904	19.02
1023.07	27.08
1023.237	28.5
1023.403	21.81
1023.569	20.95
1023.735	19.46
1023.902	30.84
1024.068	23.66
1024.234	14.71
1024.4	18.57
1024.566	20.02
1024.732	17.1
1024.898	22.66
1025.065	19.58
1025.231	10.09
1025.397	23.43
1025.563	22.02
1025.729	16.48
1025.895	21.94
1026.061	24.62
1026.227	14.27
1026.392	26.26
1026.558	25.93
1026.724	28.06
1026.89	18.67
1027.056	28.03
1027.222	22.54
1027.388	28.34
1027.553	20.23
1027.719	17.2
1027.885	28.12
1028.051	24.18
1028.216	25.81
1028.382	17.95
1028.548	25.57
1028.713	25.78
1028.879	19.19
1029.045	20.15
1029.21	30.51
1029.376	36.11
1029.541	28.55
1029.707	25.36
1029.873	27.03
1030.038	28.99
1030.204	21.31
1030.369	18.07
1030.534	26.19
1030.7	23.47
1030.865	28.44
1031.031	24.86
1031.196	23.08
1031.361	30.32
1031.527	26.94
1031.692	25.68
1031.857	39.49
1032.023	30.46
1032.188	28.86
1032.353	14.79
1032.518	23.8
1032.684	31.78
1032.849	10.76
1033.014	23.35
1033.179	19.47
1033.344	37.93
1033.509	23.61
1033.674	28.83
1033.839	29.81
1034.004	25.44
1034.17	32.03
1034.335	27.45
1034.5	32.31
1034.664	38.65
1034.829	21.55
1034.994	21.96
1035.159	22.12
1035.324	37.22
1035.489	32.09
1035.654	22.18
1035.819	61.36
1035.984	28.33
1036.148	21.37
1036.313	21.8
1036.478	45.59
1036.643	33.6
1036.807	29.48
1036.972	25.15
1037.137	46.39
1037.301	33.44
1037.466	27.84
1037.631	26.27
1037.795	23.3
1037.96	22.77
1038.124	34.62
1038.289	23.73
1038.454	17.44
1038.618	35.79
1038.783	25.12
1038.947	25.92
1039.111	33.17
1039.276	34.34
1039.44	11.11
1039.605	49.8
1039.769	32.09
1039.933	34.12
1040.098	26.28
1040.262	37.71
1040.426	34.13
1040.591	35.47
1040.755	33.87
1040.919	29.81
1041.083	49.79
1041.248	28.5
1041.412	23.83
1041.576	27.51
1041.74	38.14
1041.904	24.68
1042.068	38.63
1042.232	37.07
1042.397	49.48
1042.561	26.39
1042.725	42.13
1042.889	38.08
1043.053	24.04
1043.217	24.12
1043.381	30.06
1043.544	29.47
1043.708	32.16
1043.872	44.55
1044.036	25.73
1044.2	28.17
1044.364	44.13
1044.528	50.01
1044.691	-111.71
1044.855	41.56
1045.019	30.95
1045.183	37.35
1045.346	42.14
1045.51	22.03
1045.674	51.92
1045.837	38.89
1046.001	30.04
1046.165	35.82
1046.328	44.41
1046.492	16.97
1046.655	43.28
1046.819	40.5
1046.983	26.24
1047.146	24.27
1047.31	37.85
1047.473	38.37
1047.636	28.46
1047.8	36.54
1047.963	37.35
1048.127	30.35
1048.29	37.21
