Data from Reflection_11-18-34-727.txt Node
Date: Fri Mar 08 11:18:34 EST 2024
User: zxiong
Spectrometer: USB4F04538
Trigger mode: 4
Integration Time (sec): 1.000000E0
Scans to average: 1
Electric dark correction enabled: true
Nonlinearity correction enabled: false
Boxcar width: 0
XAxis mode: Wavelengths
Number of Pixels in Spectrum: 3648
>>>>>Begin Spectral Data<<<<<
345.52	4372.73
345.736	4372.73
345.952	4372.73
346.168	336.36
346.384	129.98
346.6	-100
346.816	-213.61
347.032	345.36
347.248	10.09
347.464	-175.89
347.68	59.82
347.896	1271.43
348.112	60.24
348.328	35.21
348.544	532.2
348.76	59.21
348.975	94.59
349.191	-199.41
349.407	90.96
349.623	614.15
349.839	453.85
350.055	-60.73
350.27	1467.35
350.486	95.76
350.702	121.14
350.918	163.04
351.133	151.59
351.349	199.11
351.565	245.42
351.781	61.58
351.996	361.89
352.212	63.85
352.428	-595.81
352.644	142.12
352.859	186.57
353.075	284.19
353.291	223.48
353.506	391.19
353.722	437.02
353.938	327.68
354.153	99.77
354.369	4556
354.584	206.98
354.8	32.22
355.016	391.88
355.231	-150.35
355.447	329.39
355.662	713.22
355.878	-226.15
356.093	99.67
356.309	871.9
356.524	597.58
356.74	275.86
356.955	52.46
357.171	716.57
357.386	196.54
357.602	287.65
357.817	176.28
358.033	189.13
358.248	154.32
358.464	228.99
358.679	131.71
358.895	80.48
359.11	624.42
359.325	168.05
359.541	1284.98
359.756	139.02
359.972	-11554.55
360.187	457.68
360.402	62.97
360.618	79.74
360.833	517.01
361.048	759.17
361.264	375.74
361.479	191.58
361.694	256.09
361.909	147.89
362.125	217.1
362.34	99.8
362.555	170.3
362.77	271.4
362.986	-191.6
363.201	93.18
363.416	243.98
363.631	248.79
363.847	83.35
364.062	-119.12
364.277	108.04
364.492	126.25
364.707	-702.96
364.922	176.57
365.138	184.41
365.353	149.57
365.568	296.75
365.783	190.57
365.998	593.69
366.213	203.92
366.428	118.18
366.643	248.39
366.858	196.26
367.073	130.72
367.288	116.65
367.503	143.56
367.718	189.77
367.933	238
368.148	96.45
368.363	137.88
368.578	529.43
368.793	127.14
369.008	179.64
369.223	-2760.87
369.438	251.41
369.653	69.15
369.868	87.72
370.083	116.61
370.298	185.43
370.513	120.34
370.728	163.97
370.943	46.11
371.157	253.16
371.372	292.67
371.587	13.47
371.802	114.23
372.017	169.68
372.232	130.72
372.446	169.48
372.661	105.89
372.876	-7190.91
373.091	265.99
373.306	142.12
373.52	37.51
373.735	217.21
373.95	294.18
374.165	341.11
374.379	124.79
374.594	242.86
374.809	214.99
375.023	141.46
375.238	101.12
375.453	195.98
375.667	328.36
375.882	85.88
376.097	113.72
376.311	133.07
376.526	243.99
376.741	67.83
376.955	289.19
377.17	136.35
377.384	214.32
377.599	109.92
377.813	74.77
378.028	223.02
378.242	224.96
378.457	173.63
378.672	183.85
378.886	51.25
379.101	149.76
379.315	207.42
379.53	74.37
379.744	155.45
379.958	83.35
380.173	104.47
380.387	69.87
380.602	232.85
380.816	472.92
381.031	111.19
381.245	40.08
381.459	139.38
381.674	7921.92
381.888	33.63
382.103	126.68
382.317	141.84
382.531	64.09
382.746	78.91
382.96	80.57
383.174	140.36
383.388	123.63
383.603	138.29
383.817	88.53
384.031	95.51
384.246	239.69
384.46	52.65
384.674	393.44
384.888	65.55
385.103	173.47
385.317	57.92
385.531	99.87
385.745	325.88
385.959	137.42
386.174	118.98
386.388	80.19
386.602	97.38
386.816	193.9
387.03	54.51
387.244	83.02
387.458	250.32
387.672	81.59
387.887	31.66
388.101	132.81
388.315	120.86
388.529	155.73
388.743	16.52
388.957	85.04
389.171	109.46
389.385	136.13
389.599	23.23
389.813	147.72
390.027	161.94
390.241	114.7
390.455	81.13
390.669	127.61
390.883	88.29
391.097	78.24
391.311	90.49
391.525	57.65
391.738	156.63
391.952	130.5
392.166	161.69
392.38	42.87
392.594	91.84
392.808	50.22
393.022	95.13
393.236	45.43
393.449	99.85
393.663	116.24
393.877	56.02
394.091	86.2
394.305	68.18
394.518	107.12
394.732	43.89
394.946	88.77
395.16	114.35
395.373	126.12
395.587	61.55
395.801	100.89
396.015	35.25
396.228	54.23
396.442	64.02
396.656	56.72
396.869	73.75
397.083	111.62
397.297	32.25
397.51	63.1
397.724	80.34
397.938	131.38
398.151	89.89
398.365	76.31
398.578	79.61
398.792	82.83
399.005	99.31
399.219	46.52
399.433	87.9
399.646	184.61
399.86	129.56
400.073	99.34
400.287	75.37
400.5	132.6
400.714	80.18
400.927	87.48
401.141	129.71
401.354	200.49
401.567	128.16
401.781	82.01
401.994	101.32
402.208	108.93
402.421	90.49
402.635	79.69
402.848	80.98
403.061	90.29
403.275	90.12
403.488	67.62
403.701	98.2
403.915	150.25
404.128	75.2
404.341	69.97
404.555	136.75
404.768	78.7
404.981	92.76
405.195	83.76
405.408	90.6
405.621	80.67
405.834	89.45
406.048	71.21
406.261	39.91
406.474	59.25
406.687	68.11
406.9	74.31
407.114	101.65
407.327	136.47
407.54	57.77
407.753	69.04
407.966	78.33
408.179	65.43
408.392	60.77
408.605	69.7
408.819	74.06
409.032	96.02
409.245	68.22
409.458	53.7
409.671	80.77
409.884	69.37
410.097	68.89
410.31	82.19
410.523	93.9
410.736	63.39
410.949	102.07
411.162	44.74
411.375	74.13
411.588	86.83
411.801	68.71
412.014	57.31
412.227	68.16
412.44	64.7
412.653	58.42
412.865	44.93
413.078	114.27
413.291	75.75
413.504	78.33
413.717	58.87
413.93	56.09
414.143	74.56
414.356	86.72
414.568	54.38
414.781	49.49
414.994	78.67
415.207	51
415.42	77.13
415.632	63.25
415.845	71.29
416.058	51.57
416.271	45.57
416.483	63.34
416.696	48.59
416.909	54.11
417.121	44.62
417.334	68.93
417.547	51.37
417.759	57.89
417.972	51.3
418.185	60.56
418.397	50.14
418.61	44.16
418.823	59.5
419.035	61.23
419.248	57.74
419.46	66.17
419.673	44.89
419.885	51.53
420.098	72.03
420.311	63.79
420.523	43.1
420.736	57.63
420.948	88.13
421.161	72.4
421.373	35.03
421.586	69.87
421.798	50.82
422.01	55.13
422.223	46.47
422.435	61.43
422.648	80.16
422.86	36.17
423.073	48.16
423.285	37.29
423.497	62
423.71	57.31
423.922	62.54
424.134	111.27
424.347	99.16
424.559	35.05
424.771	62.23
424.984	78.57
425.196	65.48
425.408	28.98
425.621	46.14
425.833	49.05
426.045	65.92
426.257	31.49
426.47	54.25
426.682	62.89
426.894	40.12
427.106	41.4
427.318	57.9
427.531	58.46
427.743	42.38
427.955	60.73
428.167	54.33
428.379	42.14
428.591	55.61
428.804	39.63
429.016	40.3
429.228	56.14
429.44	58.09
429.652	34.25
429.864	27.43
430.076	62.9
430.288	49.2
430.5	37.2
430.712	52.51
430.924	34.7
431.136	57.84
431.348	32.75
431.56	37.53
431.772	34.66
431.984	47.23
432.196	35.16
432.408	35.85
432.62	47.03
432.832	60.11
433.044	50.67
433.256	43.74
433.468	44.58
433.679	62.55
433.891	34.3
434.103	43.57
434.315	33.61
434.527	39.64
434.739	35.12
434.95	41.18
435.162	48.96
435.374	37.64
435.586	41.38
435.798	42.57
436.009	57.9
436.221	46.04
436.433	38.65
436.645	44.24
436.856	44.18
437.068	59.24
437.28	42.92
437.491	44.23
437.703	55.03
437.915	47.21
438.126	31.29
438.338	63.96
438.55	43.97
438.761	40.76
438.973	41.96
439.184	37.53
439.396	36.31
439.608	35.07
439.819	44.23
440.031	39.21
440.242	40.93
440.454	38.75
440.665	40.63
440.877	43.3
441.088	46.72
441.3	53.46
441.511	33.88
441.723	43.59
441.934	63.43
442.146	53.42
442.357	39.59
442.569	47.18
442.78	53.11
442.991	62.5
443.203	43.17
443.414	40.83
443.626	45.44
443.837	47.19
444.048	30.18
444.26	39.88
444.471	45.95
444.682	33.55
444.894	42.16
445.105	41.05
445.316	52.27
445.528	35.75
445.739	38.23
445.95	45.3
446.161	40.93
446.373	43.15
446.584	45.38
446.795	35.73
447.006	50.21
447.217	37.79
447.429	42
447.64	38.28
447.851	74.51
448.062	56.33
448.273	33.9
448.484	43.28
448.695	39.15
448.907	55.28
449.118	35.38
449.329	44.32
449.54	43.45
449.751	50.76
449.962	37.95
450.173	40.13
450.384	47.15
450.595	41.29
450.806	43.94
451.017	44.54
451.228	50.28
451.439	46.83
451.65	49.09
451.861	30.86
452.072	44.72
452.283	43.81
452.494	35.52
452.705	39.8
452.915	52.74
453.126	37.15
453.337	35.61
453.548	39.1
453.759	51.15
453.97	34.17
454.181	44.01
454.391	28.07
454.602	34.35
454.813	47.59
455.024	37.03
455.235	34.79
455.445	49.98
455.656	41.3
455.867	35.64
456.078	35.82
456.288	39.62
456.499	38.13
456.71	33.89
456.921	40.01
457.131	42.58
457.342	35.17
457.553	32.67
457.763	43.47
457.974	32.41
458.184	35.69
458.395	27.18
458.606	33.06
458.816	40.82
459.027	39.46
459.237	40.31
459.448	27.48
459.659	42.56
459.869	47.05
460.08	31.03
460.29	35.78
460.501	32.53
460.711	41.42
460.922	30.5
461.132	38.09
461.343	51.69
461.553	42
461.764	29.71
461.974	36.71
462.184	36.89
462.395	37.12
462.605	33.45
462.816	34.02
463.026	38.42
463.236	35.94
463.447	37.8
463.657	31.85
463.867	34.8
464.078	38.86
464.288	33.8
464.498	36.35
464.709	38.46
464.919	42.23
465.129	32.51
465.339	31.08
465.55	35.03
465.76	35.28
465.97	31.89
466.18	35.57
466.391	37.76
466.601	34.58
466.811	32.26
467.021	26.83
467.231	32.34
467.441	34.83
467.651	26.07
467.862	28.44
468.072	40.1
468.282	27.51
468.492	29.85
468.702	29.98
468.912	34.86
469.122	38.68
469.332	31.7
469.542	33.72
469.752	35.93
469.962	31.36
470.172	30.14
470.382	27.94
470.592	37.04
470.802	26.62
471.012	32.3
471.222	29.32
471.432	28.42
471.642	30.46
471.852	32.57
472.062	28.13
472.272	35.04
472.482	32.05
472.691	30.97
472.901	32.38
473.111	32.9
473.321	32.83
473.531	31.18
473.741	29.84
473.95	30.05
474.16	33.13
474.37	28.25
474.58	29.14
474.79	33.46
474.999	28.41
475.209	28.48
475.419	27.76
475.628	31.7
475.838	31.05
476.048	30.8
476.258	26.13
476.467	32.08
476.677	28.08
476.886	31.29
477.096	29.05
477.306	30.9
477.515	31.17
477.725	28.11
477.935	29.54
478.144	31.9
478.354	34.17
478.563	29.56
478.773	25.71
478.982	28.84
479.192	30.2
479.401	26.63
479.611	28.39
479.82	29.1
480.03	30.89
480.239	26.71
480.449	27.64
480.658	30.47
480.868	33.53
481.077	27.49
481.287	26.68
481.496	29.41
481.705	28.6
481.915	28.12
482.124	27.02
482.333	28.34
482.543	26.45
482.752	27.52
482.961	27.04
483.171	27.52
483.38	28.28
483.589	26.26
483.799	24.83
484.008	25.21
484.217	23.57
484.426	24.88
484.636	25.29
484.845	28.61
485.054	27.18
485.263	23.97
485.472	23.12
485.682	22.64
485.891	22.63
486.1	21.4
486.309	21.56
486.518	25.58
486.727	26.25
486.936	21.95
487.146	21.31
487.355	25.33
487.564	25.68
487.773	20.58
487.982	26.56
488.191	27.34
488.4	26.66
488.609	23.25
488.818	22.88
489.027	25.14
489.236	25.53
489.445	23.67
489.654	24.24
489.863	25.96
490.072	26.64
490.281	25.64
490.49	24.75
490.698	23.83
490.907	27.26
491.116	23.69
491.325	23.91
491.534	24.26
491.743	24.89
491.952	23.69
492.16	21.65
492.369	24.71
492.578	23.62
492.787	23.39
492.996	23.19
493.204	24.26
493.413	23.57
493.622	23.03
493.831	22.79
494.039	25.04
494.248	24.82
494.457	24.29
494.665	23.62
494.874	26.2
495.083	27.1
495.291	25.42
495.5	22.81
495.709	24.86
495.917	24.26
496.126	22.85
496.335	21.95
496.543	25.59
496.752	24.91
496.96	26.18
497.169	22.02
497.377	24.17
497.586	23.26
497.794	23.66
498.003	22.08
498.211	22.04
498.42	22.33
498.628	21.76
498.837	22.43
499.045	22.33
499.254	22.74
499.462	23.21
499.671	23.81
499.879	26.61
500.087	21.23
500.296	22.18
500.504	21.02
500.713	23.88
500.921	21.02
501.129	21.38
501.338	21.48
501.546	23.05
501.754	21.94
501.962	20.36
502.171	20.72
502.379	20.8
502.587	22.17
502.795	22.64
503.004	22.29
503.212	24.18
503.42	23.39
503.628	22.85
503.837	21.9
504.045	21.99
504.253	24.95
504.461	21.37
504.669	22.25
504.877	23.04
505.085	22.44
505.294	22.19
505.502	24.29
505.71	24.18
505.918	23.92
506.126	21.54
506.334	23.76
506.542	24.84
506.75	23.6
506.958	22.79
507.166	20.93
507.374	22.27
507.582	21.68
507.79	21.3
507.998	22.15
508.206	23.47
508.414	24.44
508.622	23.35
508.83	22.89
509.037	22.81
509.245	23.52
509.453	22.25
509.661	21.84
509.869	24.83
510.077	22.67
510.285	23.27
510.492	19.83
510.7	23.12
510.908	23.1
511.116	22.29
511.324	21.83
511.531	21.93
511.739	23.86
511.947	23.16
512.155	22.84
512.362	23.78
512.57	23.53
512.778	22.19
512.985	20.2
513.193	20.59
513.401	22.46
513.608	21.77
513.816	20.63
514.024	21.86
514.231	22.55
514.439	21.39
514.646	20.81
514.854	21.89
515.061	21.01
515.269	22.29
515.477	21.57
515.684	23.17
515.892	21.95
516.099	21.42
516.307	20.33
516.514	21.42
516.722	21.34
516.929	18.08
517.136	18.54
517.344	17.91
517.551	21.36
517.759	19.1
517.966	19.38
518.173	21.02
518.381	20.82
518.588	18.56
518.796	17.61
519.003	21.22
519.21	21.33
519.418	19.82
519.625	20.43
519.832	23.58
520.039	23.38
520.247	20.29
520.454	21.93
520.661	21.76
520.868	22.47
521.076	22.47
521.283	21.89
521.49	21.97
521.697	22.2
521.904	21.18
522.112	21.91
522.319	21.93
522.526	23.23
522.733	21.75
522.94	21.23
523.147	22.2
523.354	21.11
523.561	21.96
523.768	21.31
523.975	22.21
524.183	22.69
524.39	23.12
524.597	21.55
524.804	21.33
525.011	23.48
525.218	21.45
525.425	21.19
525.632	22.28
525.838	22.14
526.045	20.58
526.252	21.27
526.459	22.51
526.666	22.85
526.873	19.31
527.08	20.19
527.287	21.34
527.494	21.06
527.701	19.86
527.907	19.43
528.114	21.93
528.321	22.65
528.528	21.94
528.735	21.01
528.941	22.6
529.148	23.2
529.355	21.64
529.562	22.33
529.768	23.13
529.975	20.73
530.182	21.27
530.388	21.34
530.595	22.46
530.802	22.42
531.008	22.8
531.215	22.34
531.422	19.69
531.628	23.83
531.835	21.3
532.042	21.3
532.248	22.67
532.455	22.02
532.661	20.43
532.868	20.65
533.074	21.87
533.281	21.68
533.487	21.56
533.694	21.28
533.9	22.88
534.107	21.26
534.313	21.37
534.52	21.4
534.726	20.86
534.933	23.37
535.139	22.11
535.345	21.68
535.552	25.15
535.758	23.94
535.965	22.78
536.171	22.52
536.377	21.5
536.584	23.32
536.79	21.02
536.996	21.83
537.203	22.68
537.409	23.64
537.615	21.85
537.821	19.34
538.028	23.59
538.234	22.59
538.44	22.23
538.646	21.24
538.853	20.93
539.059	21.35
539.265	22.12
539.471	21.35
539.677	21.45
539.883	22.02
540.09	20.8
540.296	22.78
540.502	20.9
540.708	21.49
540.914	22.08
541.12	20.18
541.326	21.33
541.532	21.81
541.738	20.94
541.944	20.75
542.15	22.87
542.356	22.69
542.562	20.52
542.768	21.58
542.974	21.55
543.18	23.53
543.386	21.29
543.592	20.63
543.798	23.77
544.004	21.32
544.21	22.46
544.415	21.83
544.621	21.82
544.827	23.8
545.033	21.08
545.239	21.6
545.445	22.42
545.651	21.97
545.856	21.2
546.062	21.7
546.268	22.37
546.474	21.04
546.679	21.81
546.885	21.48
547.091	22.11
547.297	22.87
547.502	21.41
547.708	19.92
547.914	21.7
548.119	22.25
548.325	21.05
548.531	21.27
548.736	23.39
548.942	22.43
549.147	21.82
549.353	21.24
549.559	22.76
549.764	21.78
549.97	21.28
550.175	21.7
550.381	22.31
550.586	22.17
550.792	21.81
550.997	20.7
551.203	23.11
551.408	23.37
551.614	21.19
551.819	21.6
552.025	22.3
552.23	20.83
552.435	21.61
552.641	21.2
552.846	21.82
553.052	22.03
553.257	22.11
553.462	21.79
553.668	22.45
553.873	21.84
554.078	22.02
554.283	21.83
554.489	21.47
554.694	22.26
554.899	21.25
555.105	21.49
555.31	22.61
555.515	22.81
555.72	21.56
555.925	20.77
556.131	21.74
556.336	22.6
556.541	20.23
556.746	22.41
556.951	22.23
557.156	19.46
557.361	21.04
557.567	21.51
557.772	20.98
557.977	22.53
558.182	20.58
558.387	20.38
558.592	21.98
558.797	21.8
559.002	20.74
559.207	20.06
559.412	22.12
559.617	21.94
559.822	20.35
560.027	20.84
560.232	20.7
560.437	21.77
560.642	20.29
560.847	21.17
561.051	21.68
561.256	22.01
561.461	21.28
561.666	21.02
561.871	21.5
562.076	22.34
562.281	20.61
562.485	20.06
562.69	22.23
562.895	20.97
563.1	21.35
563.305	21.37
563.509	21.69
563.714	22.17
563.919	20.83
564.123	20.53
564.328	21.36
564.533	21.52
564.737	20.2
564.942	20.78
565.147	21.65
565.351	20.63
565.556	20.31
565.761	20.79
565.965	21.24
566.17	20.45
566.374	20.86
566.579	20.77
566.784	21.3
566.988	21.34
567.193	20.31
567.397	20.87
567.602	21.74
567.806	21.34
568.011	20.71
568.215	20.23
568.42	20.55
568.624	21.28
568.828	19.58
569.033	20.34
569.237	19.99
569.442	21.17
569.646	19.5
569.85	19.84
570.055	20.95
570.259	20.91
570.463	21.29
570.668	19.81
570.872	21.26
571.076	20.12
571.281	20.07
571.485	19.05
571.689	20.63
571.893	20.65
572.098	20.58
572.302	20.15
572.506	20.57
572.71	20.44
572.914	20.7
573.119	20.29
573.323	21.26
573.527	20.76
573.731	20.54
573.935	20.32
574.139	20.34
574.343	20.61
574.547	19.45
574.751	20.02
574.955	19.33
575.159	18.82
575.364	19.17
575.568	18.76
575.772	19.99
575.976	19.52
576.18	19.88
576.383	19.14
576.587	19.75
576.791	20.32
576.995	19.15
577.199	19.72
577.403	18.99
577.607	18.53
577.811	19.11
578.015	19.05
578.219	19.74
578.422	19.36
578.626	19.13
578.83	18.7
579.034	20.1
579.238	21.08
579.442	19.28
579.645	20.5
579.849	20.01
580.053	20.37
580.257	20.22
580.46	20.12
580.664	20.03
580.868	19.52
581.071	20.36
581.275	20.35
581.479	20.44
581.682	20.4
581.886	18.77
582.09	19.96
582.293	20.78
582.497	20.08
582.7	19.1
582.904	19.33
583.107	21.35
583.311	21.02
583.515	20.05
583.718	20.51
583.922	21.11
584.125	21.06
584.329	19.2
584.532	19.55
584.735	21.19
584.939	20.28
585.142	19.5
585.346	20.52
585.549	19.26
585.753	19.82
585.956	19.64
586.159	20.16
586.363	19.8
586.566	19.89
586.769	19.15
586.973	18.95
587.176	19.98
587.379	19.53
587.582	19.01
587.786	19.94
587.989	20.83
588.192	20.4
588.395	19.21
588.599	18.57
588.802	18.29
589.005	18.02
589.208	17.61
589.411	17.08
589.615	17.96
589.818	17.93
590.021	18.18
590.224	18.81
590.427	19.86
590.63	19.68
590.833	19.45
591.036	18.73
591.239	20.18
591.442	19.58
591.645	19.68
591.848	18.18
592.051	19.23
592.254	19.02
592.457	19.18
592.66	19.49
592.863	18.73
593.066	19.91
593.269	19.33
593.472	19.31
593.675	19.57
593.878	19.07
594.081	18.82
594.284	18.81
594.486	19.31
594.689	18.34
594.892	18.26
595.095	18.53
595.298	19.21
595.5	18.62
595.703	18.51
595.906	18.47
596.109	18.66
596.311	19
596.514	18.93
596.717	19.16
596.92	19.43
597.122	19.67
597.325	18.79
597.528	17.95
597.73	19.02
597.933	19.28
598.136	18.43
598.338	17.97
598.541	18.96
598.743	18.54
598.946	18.84
599.148	18.51
599.351	18.96
599.554	18.43
599.756	18.97
599.959	18.18
600.161	18.76
600.363	18.99
600.566	18.36
600.768	18.38
600.971	19.15
601.173	18.13
601.376	17.52
601.578	18.07
601.78	17.68
601.983	18.54
602.185	17.66
602.388	18.43
602.59	18.39
602.792	19.97
602.995	19.03
603.197	18.87
603.399	18.44
603.601	19.56
603.804	18.42
604.006	18.74
604.208	18.46
604.41	18.34
604.613	18.53
604.815	17.7
605.017	17.97
605.219	18.57
605.421	19.02
605.623	18.42
605.826	17.91
606.028	18.53
606.23	18.34
606.432	18.36
606.634	18.17
606.836	18.26
607.038	18.51
607.24	17.78
607.442	18.86
607.644	19.05
607.846	17.79
608.048	17.24
608.25	18.67
608.452	18.3
608.654	17.87
608.856	17.55
609.058	18.27
609.26	18.03
609.462	17.87
609.664	17.29
609.866	17.74
610.067	17.43
610.269	16.73
610.471	16.92
610.673	17.62
610.875	17.45
611.077	17.59
611.278	17.31
611.48	17.76
611.682	18.26
611.884	17.72
612.085	17.37
612.287	17.67
612.489	16.49
612.69	16.96
612.892	17.34
613.094	18.05
613.295	17.08
613.497	16.9
613.699	17.75
613.9	17.46
614.102	16.85
614.304	16.6
614.505	16.98
614.707	17.96
614.908	18.32
615.11	17.68
615.311	17.12
615.513	17.42
615.714	17.12
615.916	16.5
616.117	17.18
616.319	17.18
616.52	17.86
616.722	16.71
616.923	16.27
617.124	17.22
617.326	17.78
617.527	17.05
617.729	17.39
617.93	16.77
618.131	17.13
618.333	16.99
618.534	17.36
618.735	17.38
618.937	17.35
619.138	16.53
619.339	16.79
619.54	17.6
619.742	17.59
619.943	16.81
620.144	17.1
620.345	16.99
620.546	17.22
620.748	17.12
620.949	16.79
621.15	17.39
621.351	17.15
621.552	16.27
621.753	16.24
621.954	16.68
622.155	16.91
622.356	16.6
622.558	16.96
622.759	17.46
622.96	16.69
623.161	16.56
623.362	16.33
623.563	16.8
623.764	16.78
623.965	15.56
624.166	15.95
624.366	16.31
624.567	16.46
624.768	15.7
624.969	15.93
625.17	16.94
625.371	15.84
625.572	15.99
625.773	15.73
625.973	16.1
626.174	16.3
626.375	16.26
626.576	16.35
626.777	16.12
626.977	16.18
627.178	15.05
627.379	15.97
627.58	16.17
627.78	16.14
627.981	15.32
628.182	15.59
628.382	15.73
628.583	16.59
628.784	15.06
628.984	15.84
629.185	14.99
629.386	16.3
629.586	15.16
629.787	14.55
629.987	15.6
630.188	15.9
630.388	15.05
630.589	16.25
630.79	16.11
630.99	15.05
631.191	15.39
631.391	15.13
631.591	15.3
631.792	15.24
631.992	15.6
632.193	15.28
632.393	15.5
632.594	16.29
632.794	14.27
632.994	15.26
633.195	15.06
633.395	15.15
633.595	15.01
633.796	15.02
633.996	16.64
634.196	15.74
634.397	15.23
634.597	14.89
634.797	16.13
634.997	15.84
635.198	15.82
635.398	15.65
635.598	15.41
635.798	14.77
635.998	15.53
636.199	15
636.399	15.61
636.599	15.79
636.799	14.61
636.999	15.49
637.199	15.61
637.399	16.16
637.599	15.33
637.799	15.81
637.999	16.25
638.199	15.57
638.399	15.69
638.599	15.4
638.799	15.44
638.999	15.08
639.199	15.31
639.399	15.18
639.599	15.32
639.799	15.4
639.999	14.93
640.199	15.18
640.399	15.59
640.599	15.74
640.799	15.02
640.998	14.5
641.198	14.42
641.398	15.26
641.598	14.51
641.798	14.99
641.997	15.42
642.197	15.18
642.397	15.34
642.597	14.58
642.796	14.83
642.996	14.48
643.196	15.12
643.395	15
643.595	15.27
643.795	14.89
643.994	14.61
644.194	14.62
644.394	15.42
644.593	15.51
644.793	14.3
644.992	14.04
645.192	15.23
645.392	14.95
645.591	14.53
645.791	14.15
645.99	15.12
646.19	14.87
646.389	14.42
646.589	14.4
646.788	14.24
646.987	14.61
647.187	14.78
647.386	14.86
647.586	14.39
647.785	15.22
647.984	14.09
648.184	14.3
648.383	14.31
648.582	14.68
648.782	13.59
648.981	13.74
649.18	13.99
649.38	13.61
649.579	14.31
649.778	13.9
649.977	14.53
650.177	14.7
650.376	14.1
650.575	14.01
650.774	14.49
650.973	14.57
651.173	13.77
651.372	14.98
651.571	14.13
651.77	14.17
651.969	14.21
652.168	14.49
652.367	13.9
652.566	14.36
652.765	13.95
652.964	14.79
653.163	14.94
653.362	14.05
653.561	13.91
653.76	14.5
653.959	14.96
654.158	14.29
654.357	13.7
654.556	14.23
654.755	13.94
654.954	14.1
655.153	13.41
655.352	13.17
655.551	12.48
655.749	13.09
655.948	11.74
656.147	12.36
656.346	11.8
656.545	13.04
656.743	13.08
656.942	13.29
657.141	12.98
657.34	13.1
657.538	12.75
657.737	13.81
657.936	14.18
658.135	13.36
658.333	13.73
658.532	13.86
658.731	14.05
658.929	14.52
659.128	14.21
659.326	13.44
659.525	14.13
659.724	14.29
659.922	13.32
660.121	13.71
660.319	14.4
660.518	14.94
660.716	13.42
660.915	13.65
661.113	13.99
661.312	14.84
661.51	13.87
661.709	13.7
661.907	13.71
662.105	13.84
662.304	14.01
662.502	13.61
662.701	14.03
662.899	14.29
663.097	14.34
663.296	14.04
663.494	13.61
663.692	13.96
663.891	13.44
664.089	13.76
664.287	14.22
664.485	14.13
664.684	14.18
664.882	13.41
665.08	14.49
665.278	13.13
665.476	13.33
665.675	14.13
665.873	14.03
666.071	14.05
666.269	13.71
666.467	13.94
666.665	13.99
666.863	14.04
667.061	14.03
667.259	13.95
667.457	12.98
667.655	13.96
667.853	13.62
668.051	13.51
668.249	13.79
668.447	13.95
668.645	13.22
668.843	14.11
669.041	14.37
669.239	12.91
669.437	13.98
669.635	13.68
669.833	14.21
670.031	13.84
670.229	13.37
670.426	13.38
670.624	13.8
670.822	14.18
671.02	13.35
671.218	14.16
671.415	14.55
671.613	13.66
671.811	13.37
672.009	13.46
672.206	13.43
672.404	13.7
672.602	13.28
672.799	13.56
672.997	14.32
673.195	13.46
673.392	13.91
673.59	13.42
673.788	13.62
673.985	13.85
674.183	13.6
674.38	13.16
674.578	14.14
674.775	13.83
674.973	13.3
675.17	13.37
675.368	13.86
675.565	13.19
675.763	13.79
675.96	13.66
676.158	13.74
676.355	14.31
676.553	13.39
676.75	14.38
676.947	14.14
677.145	13.91
677.342	13.62
677.539	13.45
677.737	14.08
677.934	13.39
678.131	13.69
678.329	14.33
678.526	14.85
678.723	14.06
678.92	13.7
679.118	13.96
679.315	14.29
679.512	13.8
679.709	13.55
679.906	13.64
680.104	13.94
680.301	13.95
680.498	13.5
680.695	13.82
680.892	14.57
681.089	14.4
681.286	13.01
681.483	13.68
681.68	13.68
681.877	13.62
682.075	13.04
682.272	13.75
682.469	14.02
682.665	14.48
682.862	13.69
683.059	13.78
683.256	13.55
683.453	13.72
683.65	13.7
683.847	13.45
684.044	14.49
684.241	13.68
684.438	13.4
684.635	13.3
684.831	14.4
685.028	13.7
685.225	13.37
685.422	13.94
685.619	13.86
685.815	13.67
686.012	12.87
686.209	12.28
686.405	11.95
686.602	10.79
686.799	10.84
686.996	10.23
687.192	11.38
687.389	10.98
687.586	11.01
687.782	11.2
687.979	12.06
688.175	11.73
688.372	10.74
688.568	11.84
688.765	12.33
688.962	11.3
689.158	12.14
689.355	11.27
689.551	12.64
689.748	12.97
689.944	12.74
690.14	12.64
690.337	12.45
690.533	13.27
690.73	12.67
690.926	12.34
691.123	12.58
691.319	13
691.515	12.89
691.712	13.26
691.908	12.63
692.104	13.4
692.301	13.46
692.497	12.74
692.693	13.85
692.889	13.18
693.086	14.49
693.282	13.58
693.478	14.38
693.674	14.28
693.87	13.9
694.067	14.44
694.263	14.33
694.459	14.2
694.655	14.01
694.851	14.38
695.047	14.58
695.243	14.96
695.439	15.05
695.635	14.53
695.831	14.38
696.027	13.86
696.224	14.86
696.42	14.88
696.615	14.54
696.811	15.51
697.007	14.69
697.203	14.54
697.399	14.93
697.595	14.55
697.791	14.92
697.987	14.98
698.183	15.72
698.379	15.48
698.575	14.72
698.77	15.4
698.966	15.49
699.162	15.46
699.358	15.18
699.554	15.57
699.749	15.33
699.945	14.39
700.141	15.62
700.337	14.82
700.532	15.52
700.728	15.11
700.924	14.86
701.119	15.41
701.315	16.09
701.511	15.18
701.706	15.5
701.902	15.57
702.097	15.43
702.293	15.82
702.489	15.37
702.684	16.12
702.88	16.29
703.075	15.54
703.271	16.13
703.466	16.26
703.662	16.24
703.857	15.63
704.053	16.14
704.248	15.66
704.443	17.08
704.639	16.45
704.834	15.64
705.03	16.52
705.225	16.67
705.42	16.11
705.616	16.15
705.811	15.97
706.006	16.36
706.202	16.35
706.397	15.74
706.592	16.67
706.787	17.4
706.983	17.05
707.178	17.46
707.373	16.74
707.568	16.12
707.763	17.03
707.959	16.21
708.154	17.27
708.349	16.97
708.544	16.98
708.739	17.45
708.934	16.34
709.129	16.86
709.324	17.61
709.519	17.05
709.714	16.75
709.909	17.02
710.104	18.14
710.299	17.4
710.494	17.07
710.689	17.67
710.884	17.81
711.079	17.29
711.274	16.97
711.469	16.8
711.664	17.69
711.859	17.23
712.054	17.32
712.249	18.45
712.443	17.39
712.638	17.36
712.833	17.41
713.028	17.93
713.223	17.27
713.417	17.39
713.612	17.11
713.807	18.08
714.002	18.25
714.196	17.42
714.391	17.43
714.586	17.94
714.78	19.08
714.975	17.43
715.17	18.28
715.364	17.39
715.559	17.65
715.754	17.49
715.948	17.04
716.143	16.82
716.337	17.15
716.532	16.59
716.726	16.89
716.921	17.71
717.115	16.96
717.31	16.39
717.504	17.1
717.699	16.85
717.893	16.64
718.088	15.7
718.282	15.47
718.476	15.35
718.671	16.54
718.865	16.11
719.059	15.92
719.254	15.64
719.448	16.66
719.642	23.67
719.837	15.27
720.031	16.2
720.225	16.09
720.419	17.23
720.614	16.4
720.808	17.49
721.002	16.96
721.196	17.61
721.39	17.19
721.585	17.22
721.779	18.33
721.973	17.83
722.167	17.44
722.361	17.24
722.555	17.63
722.749	18.05
722.943	18.01
723.137	17.84
723.331	17.58
723.525	17.01
723.719	17.22
723.913	17.32
724.107	16.69
724.301	17.07
724.495	17.29
724.689	18.47
724.883	17.52
725.077	17.53
725.271	17.78
725.465	17.57
725.659	17.95
725.853	17.45
726.046	17.69
726.24	17.68
726.434	17.71
726.628	17.82
726.822	18.06
727.015	17.46
727.209	18.07
727.403	18.15
727.596	17.72
727.79	17.89
727.984	18.19
728.177	18.1
728.371	18.08
728.565	17.58
728.758	18.17
728.952	17.97
729.146	17.74
729.339	19.08
729.533	19.33
729.726	18.51
729.92	17.48
730.113	18.59
730.307	18.54
730.5	18.1
730.694	18.75
730.887	19.15
731.081	18.43
731.274	17.95
731.468	19.03
731.661	19.94
731.854	19.72
732.048	18.14
732.241	19.56
732.435	19.44
732.628	18.41
732.821	19.1
733.014	19.21
733.208	19.79
733.401	20.25
733.594	20.19
733.788	20.13
733.981	19.63
734.174	20.49
734.367	19.88
734.56	19.45
734.754	20.78
734.947	20.04
735.14	20.49
735.333	20.61
735.526	21.02
735.719	20.85
735.912	20.06
736.105	19.28
736.298	20.92
736.491	20.43
736.684	19.77
736.877	20.14
737.07	19.78
737.263	20.35
737.456	19.51
737.649	20.06
737.842	20.41
738.035	21.68
738.228	20.08
738.421	19.55
738.614	20.91
738.807	20.38
739	19.84
739.192	20.75
739.385	20.72
739.578	20.69
739.771	20.17
739.964	20.1
740.156	20.6
740.349	20.8
740.542	20.55
740.735	20.02
740.927	20.29
741.12	20.45
741.313	19.63
741.505	20.11
741.698	20.74
741.891	20.66
742.083	19.72
742.276	20.63
742.468	21.34
742.661	21.43
742.854	20.53
743.046	20.44
743.239	20.31
743.431	21.36
743.624	20.23
743.816	19.94
744.009	20.6
744.201	20.67
744.393	20.75
744.586	20.52
744.778	20.64
744.971	20.94
745.163	21.68
745.355	20.6
745.548	21.31
745.74	21.09
745.932	20.36
746.125	20.81
746.317	21.22
746.509	21.93
746.702	20.76
746.894	20.56
747.086	22.64
747.278	20.98
747.471	21.02
747.663	21.24
747.855	21.34
748.047	21.22
748.239	20.8
748.431	21.44
748.623	20.72
748.815	21.47
749.008	20.23
749.2	20.99
749.392	20.31
749.584	20.92
749.776	20.47
749.968	20.92
750.16	21.57
750.352	21.13
750.544	20.78
750.736	20.73
750.928	20.6
751.12	21.08
751.311	20.37
751.503	21.22
751.695	21.53
751.887	20.65
752.079	20.25
752.271	20.65
752.463	21.01
752.654	21.12
752.846	21.1
753.038	21
753.23	21.04
753.421	20.84
753.613	21.19
753.805	21.08
753.997	20.81
754.188	20.59
754.38	20.63
754.572	20.67
754.763	20.68
754.955	21.34
755.146	20.53
755.338	20.43
755.53	22.02
755.721	21.29
755.913	20.32
756.104	20.74
756.296	20.98
756.487	20.93
756.679	20.42
756.87	20.55
757.062	21.29
757.253	20.28
757.445	20.45
757.636	21.07
757.827	20.99
758.019	20.89
758.21	20.17
758.401	20.28
758.593	19.37
758.784	18.37
758.975	16.42
759.167	14.01
759.358	12.92
759.549	12.05
759.74	10.05
759.932	8.68
760.123	8.09
760.314	7.97
760.505	7.37
760.696	7.68
760.888	8.13
761.079	8.51
761.27	9.26
761.461	9.71
761.652	9.94
761.843	9.88
762.034	9.31
762.225	9.43
762.416	9.46
762.607	8.63
762.798	9.14
762.989	9.33
763.18	10.04
763.371	10.75
763.562	9.47
763.753	9.85
763.944	10.19
764.135	10.77
764.326	11.26
764.517	12.08
764.708	12.74
764.899	12.89
765.089	12.64
765.28	13
765.471	13.38
765.662	14.66
765.853	14.27
766.043	15.27
766.234	15.01
766.425	15.93
766.615	15.79
766.806	16.51
766.997	17.42
767.187	17.37
767.378	17.37
767.569	17.34
767.759	17.92
767.95	18.78
768.141	19
768.331	19.32
768.522	19.86
768.712	19.39
768.903	18.19
769.093	18.91
769.284	18.95
769.474	19.09
769.665	18.86
769.855	18.69
770.046	20.67
770.236	20.62
770.426	19.29
770.617	19.31
770.807	19.97
770.998	20.63
771.188	19.34
771.378	19.16
771.569	19.55
771.759	19.4
771.949	19.98
772.139	19.12
772.33	19.56
772.52	19.48
772.71	19.21
772.9	19.86
773.09	19.36
773.281	20.28
773.471	19.36
773.661	19.45
773.851	19.84
774.041	20.08
774.231	19.2
774.421	20.09
774.611	19.44
774.802	19.71
774.992	20.05
775.182	18.62
775.372	20.82
775.562	20.13
775.752	20.02
775.942	19.3
776.131	21.02
776.321	19.79
776.511	19.01
776.701	19.63
776.891	21
777.081	20.38
777.271	19.5
777.461	18.87
777.651	20.89
777.84	19.47
778.03	19.41
778.22	18.97
778.41	19.15
778.599	20.05
778.789	19.05
778.979	19.38
779.169	19.49
779.358	19.8
779.548	18.79
779.738	18.81
779.927	19.93
780.117	18.82
780.307	18.66
780.496	19.07
780.686	19.77
780.875	20.39
781.065	19.39
781.254	18.27
781.444	19.41
781.633	19.58
781.823	18.72
782.012	18.87
782.202	20.34
782.391	19.46
782.581	18.61
782.77	19.5
782.96	20.48
783.149	19.83
783.338	18.93
783.528	18.36
783.717	19.54
783.906	19.14
784.096	19.66
784.285	18.27
784.474	20.26
784.663	19.48
784.853	18.82
785.042	19.18
785.231	19.9
785.42	18.61
785.61	19.52
785.799	19.56
785.988	20.27
786.177	19.25
786.366	19.28
786.555	19.76
786.744	19.23
786.933	19.72
787.122	18.47
787.312	17.74
787.501	18.72
787.69	19.93
787.879	18.81
788.068	18.36
788.257	19.86
788.445	19.27
788.634	18.94
788.823	18.36
789.012	18.88
789.201	18.74
789.39	18.36
789.579	18.86
789.768	19.81
789.957	18.87
790.145	18.85
790.334	18.54
790.523	18.58
790.712	18.46
790.9	17.68
791.089	17.93
791.278	17.98
791.467	19.12
791.655	18.78
791.844	17.82
792.033	19.44
792.221	19.02
792.41	18.5
792.599	17.41
792.787	17.76
792.976	18.18
793.164	17.68
793.353	17.56
793.541	17.73
793.73	17.87
793.918	17.22
794.107	17.35
794.295	18.63
794.484	17.66
794.672	18.32
794.861	17.99
795.049	17.36
795.238	18.15
795.426	17.63
795.614	17.33
795.803	18.27
795.991	19.02
796.179	17.14
796.368	19.34
796.556	17.63
796.744	18.8
796.932	17.96
797.121	17.38
797.309	18.72
797.497	18.23
797.685	17.3
797.874	16.3
798.062	18.1
798.25	18.69
798.438	16.88
798.626	16.92
798.814	18.43
799.002	18.3
799.19	17.19
799.378	17.12
799.566	16.94
799.755	18.65
799.943	16.95
800.131	17.93
800.318	17.69
800.506	18.05
800.694	17.45
800.882	17.1
801.07	17.08
801.258	17.59
801.446	16.97
801.634	18.43
801.822	17.72
802.01	18.06
802.197	15.73
802.385	17.06
802.573	18.19
802.761	17.93
802.949	16.85
803.136	16.45
803.324	17.38
803.512	17.26
803.699	17.08
803.887	16.85
804.075	16.96
804.262	17.91
804.45	16.66
804.638	16.5
804.825	16.56
805.013	16.79
805.201	16.86
805.388	16.64
805.576	17.68
805.763	16.23
805.951	15.98
806.138	16.78
806.326	16.56
806.513	17.49
806.701	15.8
806.888	16.04
807.075	17.55
807.263	17.95
807.45	16.43
807.638	15.37
807.825	16.59
808.012	16.89
808.2	16.86
808.387	17.17
808.574	17.36
808.761	17.07
808.949	16.16
809.136	15.57
809.323	16.69
809.51	16.83
809.698	16.05
809.885	16.15
810.072	16.95
810.259	16.64
810.446	15.92
810.633	16.22
810.82	16.6
811.008	16.48
811.195	16.08
811.382	14.63
811.569	17.41
811.756	17.73
811.943	16.34
812.13	15.6
812.317	17.33
812.504	16.09
812.691	15.38
812.878	15.73
813.064	16.58
813.251	15.38
813.438	14.49
813.625	16.04
813.812	15.57
813.999	16.19
814.186	15.61
814.372	14.81
814.559	16.28
814.746	15.31
814.933	14.4
815.12	14.51
815.306	14.91
815.493	15.14
815.68	13.6
815.866	13.64
816.053	13.79
816.24	14.31
816.426	14
816.613	14.41
816.799	14.23
816.986	14.7
817.173	14.65
817.359	13.25
817.546	14.83
817.732	14.81
817.919	14.41
818.105	14.02
818.292	14.91
818.478	14.54
818.665	13.87
818.851	14.49
819.037	14.49
819.224	15.03
819.41	13.71
819.597	13.84
819.783	14.33
819.969	14.22
820.156	14.32
820.342	14.5
820.528	16.48
820.714	14.53
820.901	14.22
821.087	13.5
821.273	14.67
821.459	14.23
821.646	13.07
821.832	13.2
822.018	14.92
822.204	14.12
822.39	13.08
822.576	13.01
822.762	14.39
822.948	13.83
823.134	12.75
823.32	13.51
823.507	14.3
823.693	14.01
823.879	14.33
824.065	12.25
824.25	13.66
824.436	14.26
824.622	14.95
824.808	14.08
824.994	15.02
825.18	15.41
825.366	13.7
825.552	13.97
825.738	14.65
825.923	14.9
826.109	14.47
826.295	13.05
826.481	14.19
826.667	14.99
826.852	14.94
827.038	13.44
827.224	14.09
827.409	14.69
827.595	13.34
827.781	14.16
827.966	14.16
828.152	14.43
828.338	13.27
828.523	13.02
828.709	14.61
828.894	14.9
829.08	13
829.266	13.76
829.451	13.8
829.637	15.59
829.822	13.41
830.008	13.01
830.193	13.85
830.378	14.93
830.564	12.88
830.749	13.37
830.935	14.48
831.12	13.34
831.305	13.26
831.491	13.56
831.676	13.76
831.861	14.07
832.047	13.74
832.232	12.49
832.417	13.83
832.602	14.11
832.788	13.85
832.973	13.18
833.158	13.86
833.343	13.92
833.528	13.89
833.714	13.2
833.899	13.44
834.084	14.23
834.269	13.24
834.454	13.66
834.639	13.81
834.824	14.15
835.009	12.77
835.194	14.36
835.379	14.48
835.564	14.96
835.749	13.32
835.934	13.26
836.119	13.92
836.304	14.45
836.489	13.45
836.674	13.48
836.859	14.62
837.044	14.92
837.228	13.43
837.413	12.39
837.598	13.22
837.783	13.48
837.968	13.46
838.152	13.83
838.337	13.98
838.522	13.89
838.707	14.67
838.891	13.21
839.076	14.15
839.261	13.22
839.445	14.05
839.63	14.14
839.815	14.49
839.999	15.09
840.184	13.42
840.368	12.88
840.553	14.02
840.737	13.65
840.922	12.67
841.106	12.93
841.291	13.77
841.475	14.64
841.66	13.78
841.844	12.99
842.029	13.58
842.213	15.11
842.397	13.89
842.582	12.38
842.766	13.18
842.951	13.25
843.135	13.89
843.319	12.38
843.504	15.23
843.688	16.03
843.872	13
844.056	12.54
844.241	14.06
844.425	14.03
844.609	13
844.793	13.52
844.977	14.5
845.161	13.84
845.346	13.13
845.53	13.03
845.714	13.44
845.898	14.36
846.082	13.24
846.266	13.96
846.45	13.5
846.634	14.63
846.818	12.07
847.002	13.73
847.186	13.76
847.37	14.06
847.554	12.66
847.738	13.72
847.922	14.47
848.106	13.95
848.29	13.27
848.473	12.89
848.657	13.67
848.841	13.38
849.025	11.54
849.209	11.9
849.392	12.68
849.576	12.24
849.76	12.34
849.944	12.14
850.127	13.2
850.311	13.56
850.495	12.96
850.678	11.98
850.862	11.37
851.046	12.5
851.229	13.86
851.413	12.27
851.596	13.16
851.78	12.9
851.964	11.72
852.147	12.2
852.331	14.44
852.514	12.59
852.698	12.86
852.881	12.11
853.065	11.42
853.248	12.1
853.431	11.94
853.615	11.11
853.798	12.18
853.982	12.4
854.165	10.84
854.348	10.88
854.532	11.92
854.715	12.55
854.898	10.48
855.081	11.35
855.265	12.43
855.448	13.13
855.631	10.78
855.814	11.47
855.997	11.66
856.181	12.78
856.364	12.02
856.547	11.8
856.73	12.62
856.913	13.2
857.096	12.3
857.279	12.85
857.462	13.32
857.645	12.86
857.828	13.17
858.011	12.56
858.194	13.89
858.377	12.74
858.56	13.08
858.743	13.1
858.926	14.2
859.109	12.36
859.292	11.67
859.475	11.8
859.658	12.8
859.841	11.65
860.023	11.73
860.206	11.73
860.389	12.95
860.572	11.83
860.755	12.05
860.937	12.01
861.12	13
861.303	13.62
861.486	12.18
861.668	12.86
861.851	11.32
862.034	13.86
862.216	11.73
862.399	12.23
862.581	13.32
862.764	11.38
862.947	12.15
863.129	10.7
863.312	12.08
863.494	13.52
863.677	14.33
863.859	11.8
864.042	12.83
864.224	11.3
864.406	12.54
864.589	12.19
864.771	10.84
864.954	12.48
865.136	11.14
865.318	10.9
865.501	12.65
865.683	10.27
865.865	10.45
866.048	10.29
866.23	11.72
866.412	12.05
866.594	11.16
866.777	11.21
866.959	10.4
867.141	11.27
867.323	11.88
867.505	11.3
867.687	12.46
867.869	12.2
868.052	10.71
868.234	11.88
868.416	12.01
868.598	11.41
868.78	11.73
868.962	11.09
869.144	13.6
869.326	11.58
869.508	11.23
869.69	10.3
869.872	12.34
870.054	12.67
870.236	11.12
870.417	11.08
870.599	12.45
870.781	11.7
870.963	11.74
871.145	11.18
871.327	12.5
871.508	11.8
871.69	11.37
871.872	11.05
872.054	11.79
872.235	11.92
872.417	11.14
872.599	10.64
872.78	12.37
872.962	10.99
873.144	10.55
873.325	11.6
873.507	11.2
873.689	12.88
873.87	10.19
874.052	10.23
874.233	12.37
874.415	12.35
874.596	10.72
874.778	10.21
874.959	12.26
875.141	10.69
875.322	10.21
875.503	10.64
875.685	11.98
875.866	12.1
876.048	10.46
876.229	10.23
876.41	11.43
876.592	11.55
876.773	10.67
876.954	10.48
877.136	11.6
877.317	11.01
877.498	10.93
877.679	10.9
877.86	9.98
878.042	11.82
878.223	10.54
878.404	12.15
878.585	10.77
878.766	11.72
878.947	10.95
879.128	10.98
879.309	11.57
879.49	12.2
879.672	10.76
879.853	10.43
880.034	11.35
880.215	11.34
880.396	11.12
880.576	9.89
880.757	11.59
880.938	11.86
881.119	10.26
881.3	10.4
881.481	12.49
881.662	11.44
881.843	10.07
882.023	9.7
882.204	12.41
882.385	11.21
882.566	9.93
882.747	10.19
882.927	11.12
883.108	11.31
883.289	9.79
883.469	10.29
883.65	11.32
883.831	11.07
884.011	11.48
884.192	9.78
884.373	11.68
884.553	10.86
884.734	11.11
884.914	10.99
885.095	14.81
885.275	10.15
885.456	9.37
885.636	10.75
885.817	12.17
885.997	11.51
886.178	10.08
886.358	9.73
886.538	11.05
886.719	14.06
886.899	10.25
887.08	9.94
887.26	11.01
887.44	11.38
887.621	11.02
887.801	9.62
887.981	10.29
888.161	10.14
888.342	10.3
888.522	9.88
888.702	10.6
888.882	10.44
889.062	10.76
889.242	9.54
889.423	10.46
889.603	11.78
889.783	10.58
889.963	11.59
890.143	11.39
890.323	11.18
890.503	10.11
890.683	10.16
890.863	10.47
891.043	9.18
891.223	10.01
891.403	8.57
891.583	10.39
891.763	11.09
891.943	9.56
892.122	10.69
892.302	10.48
892.482	11.17
892.662	10.44
892.842	9.53
893.022	10.38
893.201	11.63
893.381	9.92
893.561	9.64
893.741	10.56
893.92	9.45
894.1	9.79
894.28	9.23
894.459	10.93
894.639	9.62
894.819	9.76
894.998	9.25
895.178	10.26
895.357	9.19
895.537	9.77
895.716	8.47
895.896	9.75
896.075	9.77
896.255	8.65
896.434	8.58
896.614	11.02
896.793	8.56
896.973	8.8
897.152	8.32
897.331	8.76
897.511	9.12
897.69	9.01
897.87	8.59
898.049	9.52
898.228	9.77
898.407	8.59
898.587	7.88
898.766	8.96
898.945	10.17
899.124	9.69
899.304	8.14
899.483	9.93
899.662	9
899.841	8.3
900.02	8.5
900.199	8.12
900.378	9.61
900.557	8.97
900.737	7.77
900.916	7.48
901.095	7.79
901.274	8.84
901.453	7.66
901.632	8.91
901.811	8.33
901.989	8.81
902.168	8.16
902.347	9.33
902.526	8.87
902.705	8.84
902.884	8.85
903.063	10.3
903.242	8.91
903.42	8.97
903.599	9.11
903.778	9.03
903.957	8.67
904.135	8.62
904.314	9.22
904.493	10.56
904.672	8.55
904.85	9.29
905.029	9.33
905.207	9.33
905.386	9.11
905.565	8.62
905.743	9.03
905.922	10.66
906.1	8.38
906.279	7.81
906.457	9.72
906.636	9.2
906.814	9.87
906.993	8.01
907.171	7.99
907.35	8.64
907.528	10.28
907.707	8.56
907.885	7.53
908.063	9
908.242	8.95
908.42	7.89
908.598	7.53
908.777	8.41
908.955	9.28
909.133	8.76
909.311	8.89
909.49	8.89
909.668	8.11
909.846	7.36
910.024	8.28
910.202	8.34
910.38	7.4
910.559	8.44
910.737	9.62
910.915	8.54
911.093	9.25
911.271	8.14
911.449	7.92
911.627	8.81
911.805	9.39
911.983	7.84
912.161	8.25
912.339	7.82
912.517	8.38
912.695	8.15
912.872	7.89
913.05	9.9
913.228	9.51
913.406	8.73
913.584	7.62
913.762	9.42
913.939	9.89
914.117	7.57
914.295	9.06
914.473	8.06
914.65	9.44
914.828	8.35
915.006	8
915.184	8.89
915.361	9.31
915.539	7.61
915.716	8.8
915.894	8.8
916.072	7.81
916.249	8.75
916.427	8.59
916.604	8.86
916.782	8.44
916.959	7.26
917.137	8.13
917.314	9.36
917.492	8.22
917.669	8.66
917.847	6.88
918.024	8.15
918.201	9.72
918.379	7.69
918.556	8.69
918.733	9.49
918.911	7.91
919.088	7.45
919.265	8.35
919.442	9.06
919.62	10.33
919.797	8.71
919.974	8.36
920.151	9.26
920.328	8.64
920.506	8.23
920.683	10.84
920.86	9.53
921.037	9.18
921.214	8.02
921.391	8.43
921.568	8.55
921.745	8.57
921.922	8.48
922.099	8.43
922.276	7.25
922.453	8.54
922.63	7.33
922.807	7.95
922.984	10.74
923.161	9.2
923.338	7.99
923.514	8.06
923.691	7.82
923.868	9.58
924.045	8.23
924.222	8.11
924.399	8.86
924.575	7.14
924.752	8.45
924.929	8.17
925.105	7.88
925.282	7.87
925.459	8.42
925.635	8.68
925.812	8.78
925.989	9.35
926.165	7.68
926.342	8.7
926.518	9.35
926.695	7.37
926.871	8.87
927.048	7.75
927.224	9.08
927.401	8.79
927.577	8.02
927.754	6.75
927.93	10.11
928.107	7.4
928.283	6.94
928.459	8.03
928.636	8.25
928.812	8.26
928.988	8.21
929.165	6.95
929.341	8
929.517	7.55
929.693	8.84
929.87	6.89
930.046	6.95
930.222	8.24
930.398	7.78
930.574	6.7
930.751	5.18
930.927	6.24
931.103	5.63
931.279	7.68
931.455	7.06
931.631	5.76
931.807	5.15
931.983	6.04
932.159	6.97
932.335	6.24
932.511	5.31
932.687	5.38
932.863	4.11
933.039	6.64
933.215	5.1
933.391	3.83
933.566	5.4
933.742	6.59
933.918	4.77
934.094	3.97
934.27	4.93
934.445	5.28
934.621	4.71
934.797	4.09
934.973	4.81
935.148	3.88
935.324	4.02
935.5	3.48
935.675	5.19
935.851	4.37
936.027	4.22
936.202	5.51
936.378	6.19
936.553	4.34
936.729	6.31
936.904	4.25
937.08	5.14
937.255	5.66
937.431	5.63
937.606	4.25
937.782	4.98
937.957	6.76
938.133	6.21
938.308	3.94
938.483	4.76
938.659	4.57
938.834	5.9
939.009	5.03
939.185	7.6
939.36	5.38
939.535	4.77
939.71	5.56
939.886	4.7
940.061	4.29
940.236	6
940.411	4.49
940.586	7.04
940.761	5.73
940.937	5.84
941.112	5.71
941.287	5.03
941.462	3.91
941.637	4.76
941.812	5.82
941.987	4.93
942.162	3.2
942.337	6.36
942.512	3.53
942.687	6.43
942.862	3.79
943.037	4.34
943.212	4.62
943.386	5.25
943.561	3.83
943.736	5.48
943.911	5.52
944.086	6.95
944.26	5.79
944.435	4.13
944.61	4.14
944.785	3.41
944.959	6.56
945.134	4.39
945.309	3.85
945.483	4.27
945.658	4.58
945.833	3.94
946.007	4.07
946.182	6.08
946.357	5.28
946.531	5.85
946.706	3.99
946.88	5.54
947.055	7.06
947.229	5.17
947.404	4.33
947.578	4.62
947.752	5.85
947.927	3.71
948.101	4.81
948.276	5.34
948.45	6.87
948.624	6.58
948.799	5.14
948.973	3.81
949.147	5.78
949.321	3.84
949.496	3
949.67	6.15
949.844	4.02
950.018	3.96
950.193	4.96
950.367	6.89
950.541	6.89
950.715	4.97
950.889	5.02
951.063	6.79
951.237	5.93
951.411	4.62
951.585	5.74
951.759	4.86
951.933	6.83
952.107	4.19
952.281	6.25
952.455	5.45
952.629	4.83
952.803	3.85
952.977	5.19
953.151	4.32
953.325	5.17
953.499	5.63
953.672	5.36
953.846	7.54
954.02	7.24
954.194	6.34
954.368	5.99
954.541	6.87
954.715	8.37
954.889	4.94
955.062	4.92
955.236	3.71
955.41	7.2
955.583	7.02
955.757	4.04
955.93	5.06
956.104	8.04
956.278	6.27
956.451	5.31
956.625	5.67
956.798	6.9
956.972	7.09
957.145	5.21
957.319	10.13
957.492	7.21
957.665	8.01
957.839	4.98
958.012	5.52
958.185	8.88
958.359	6.77
958.532	5.78
958.705	5.92
958.879	6.38
959.052	7.17
959.225	5
959.398	7.4
959.572	5.43
959.745	4.81
959.918	5.75
960.091	8.28
960.264	6
960.438	7.49
960.611	4.81
960.784	7.9
960.957	7.93
961.13	8.68
961.303	5.98
961.476	6.7
961.649	9.88
961.822	7.57
961.995	6.29
962.168	5.27
962.341	7.69
962.514	7.78
962.686	6.23
962.859	7.59
963.032	7.51
963.205	7.97
963.378	5.56
963.551	6.96
963.723	4.6
963.896	7.07
964.069	6.91
964.242	9.42
964.414	7.78
964.587	6.95
964.76	5.76
964.932	7.41
965.105	8.96
965.278	6.96
965.45	6.76
965.623	10.36
965.795	8.49
965.968	7.57
966.14	8.69
966.313	7.63
966.485	8.44
966.658	7.11
966.83	8.08
967.003	6.25
967.175	7.97
967.348	7.64
967.52	6.43
967.692	11.16
967.865	12.12
968.037	8
968.209	6.96
968.382	10.98
968.554	9.03
968.726	8
968.898	7.3
969.071	8.13
969.243	9.16
969.415	9.1
969.587	8.78
969.759	8.42
969.932	8.54
970.104	9.72
970.276	8.2
970.448	9.42
970.62	9.73
970.792	10.04
970.964	7.75
971.136	9.71
971.308	9.45
971.48	9.22
971.652	8.05
971.824	8.34
971.996	10.22
972.168	7.36
972.339	8.69
972.511	9.78
972.683	9.57
972.855	9.69
973.027	7.39
973.199	14.32
973.37	8.44
973.542	6.65
973.714	11.8
973.886	9.82
974.057	6.24
974.229	10.34
974.401	8.64
974.572	10.15
974.744	7.5
974.915	7.74
975.087	7.77
975.259	8.31
975.43	10.3
975.602	6.55
975.773	9.2
975.945	8.63
976.116	9.62
976.288	7.6
976.459	11.68
976.63	8.4
976.802	8.42
976.973	6.49
977.145	11.09
977.316	12.29
977.487	22.91
977.659	8.11
977.83	8.96
978.001	7.39
978.172	10.57
978.344	9.02
978.515	10.13
978.686	11.09
978.857	9.87
979.028	8.36
979.2	8.05
979.371	12.52
979.542	10.87
979.713	8.33
979.884	9.14
980.055	10.36
980.226	12.25
980.397	8.76
980.568	7.26
980.739	10.61
980.91	11.57
981.081	10.22
981.252	6.34
981.423	11.19
981.594	8.52
981.765	8.33
981.936	11.19
982.106	9.48
982.277	12.25
982.448	9.02
982.619	10.7
982.79	5.89
982.96	8.16
983.131	8.69
983.302	8.05
983.472	10.74
983.643	9.72
983.814	13.08
983.984	9.1
984.155	12.27
984.326	11.35
984.496	10.1
984.667	11.13
984.837	11.28
985.008	11.47
985.178	12.4
985.349	9.1
985.519	13.49
985.69	12.37
985.86	10.98
986.031	10.08
986.201	10.18
986.371	11.69
986.542	9.74
986.712	9.94
986.882	10.31
987.053	11.06
987.223	10.54
987.393	11.6
987.563	13.57
987.734	11.92
987.904	11.19
988.074	9.69
988.244	9.87
988.414	13
988.585	10.84
988.755	12.17
988.925	10.4
989.095	13.89
989.265	9.32
989.435	12.15
989.605	11.27
989.775	12.55
989.945	14.78
990.115	9.28
990.285	10.49
990.455	10.46
990.625	9.04
990.795	8.18
990.965	13.45
991.134	10.27
991.304	10.63
991.474	11.65
991.644	11.1
991.814	12.56
991.984	11.46
992.153	14.28
992.323	11.94
992.493	12.08
992.662	10.39
992.832	12.95
993.002	10.11
993.171	11.86
993.341	7.51
993.511	8.68
993.68	14.14
993.85	12.78
994.019	4.49
994.189	8.65
994.358	12.72
994.528	14.05
994.697	7.95
994.867	9.43
995.036	11.6
995.206	10.29
995.375	10.96
995.544	14.76
995.714	18.95
995.883	14.14
996.052	14.15
996.222	7.42
996.391	11.33
996.56	15.33
996.73	13.15
996.899	10.71
997.068	12.48
997.237	16.18
997.406	12.87
997.576	4.88
997.745	21.39
997.914	13.46
998.083	8.43
998.252	10.07
998.421	17.5
998.59	14.55
998.759	11.96
998.928	10.62
999.097	16.05
999.266	15.53
999.435	13.06
999.604	8.75
999.773	12.57
999.942	17.12
1000.111	9.66
1000.28	13.52
1000.448	15.37
1000.617	15.65
1000.786	12.18
1000.955	5.96
1001.124	15.56
1001.292	13.78
1001.461	9.06
1001.63	10.27
1001.798	11.87
1001.967	12.48
1002.136	10.48
1002.304	15.49
1002.473	15.61
1002.642	14.25
1002.81	12.29
1002.979	13.37
1003.147	17.75
1003.316	12.07
1003.484	10.19
1003.653	14.17
1003.821	13.1
1003.99	18.08
1004.158	17.12
1004.327	15.32
1004.495	14.31
1004.663	20.19
1004.832	15.36
1005	13.99
1005.168	15.38
1005.337	14.95
1005.505	8.47
1005.673	15.93
1005.842	19.02
1006.01	10.64
1006.178	13.61
1006.346	15.82
1006.514	12.29
1006.683	17.5
1006.851	14.47
1007.019	18.99
1007.187	16.04
1007.355	17.63
1007.523	14.42
1007.691	11.17
1007.859	20.01
1008.027	17.65
1008.195	13.61
1008.363	11.06
1008.531	9.06
1008.699	18.26
1008.867	8.48
1009.035	14.17
1009.203	16.79
1009.37	16.89
1009.538	14.78
1009.706	23.34
1009.874	17.35
1010.042	15.56
1010.209	18.88
1010.377	8.98
1010.545	14.99
1010.713	20.72
1010.88	16.85
1011.048	14.23
1011.216	16.2
1011.383	13.05
1011.551	13.88
1011.718	13.8
1011.886	17.89
1012.054	26.19
1012.221	19.02
1012.389	13.45
1012.556	19.63
1012.724	18.3
1012.891	15.74
1013.058	13.15
1013.226	16.28
1013.393	13.52
1013.561	13.66
1013.728	11.73
1013.895	22.64
1014.063	17.1
1014.23	7.8
1014.397	17.67
1014.565	16.21
1014.732	19.44
1014.899	11.89
1015.066	17.26
1015.233	25.62
1015.401	22.9
1015.568	13.65
1015.735	19.65
1015.902	22.29
1016.069	21.91
1016.236	16.98
1016.403	13.98
1016.57	20.09
1016.737	25.24
1016.904	14.81
1017.071	9.47
1017.238	21.59
1017.405	20.22
1017.572	21.62
1017.739	15.42
1017.906	30.83
1018.073	22.12
1018.24	15.32
1018.407	18.28
1018.573	15.33
1018.74	27.74
1018.907	18.67
1019.074	10.33
1019.241	15.36
1019.407	20.45
1019.574	16.43
1019.741	14.9
1019.907	28.53
1020.074	19.53
1020.241	14.26
1020.407	8.33
1020.574	19.66
1020.74	18.04
1020.907	18.76
1021.073	20.73
1021.24	23.44
1021.406	16.17
1021.573	17.16
1021.739	17.93
1021.906	28.13
1022.072	20.04
1022.239	26.25
1022.405	10.34
1022.571	24.41
1022.738	33.97
1022.904	14.33
1023.07	19.99
1023.237	22.52
1023.403	24.43
1023.569	20.86
1023.735	20.78
1023.902	30.49
1024.068	31.98
1024.234	16.55
1024.4	22.93
1024.566	24
1024.732	19.79
1024.898	18.39
1025.065	10.58
1025.231	23.72
1025.397	17.63
1025.563	22.21
1025.729	14.95
1025.895	24.85
1026.061	26.49
1026.227	14.6
1026.392	27.55
1026.558	19.99
1026.724	27.23
1026.89	19.51
1027.056	29.43
1027.222	19.88
1027.388	39.98
1027.553	18.19
1027.719	10.2
1027.885	23.3
1028.051	18.47
1028.216	21.71
1028.382	27
1028.548	30.42
1028.713	25.24
1028.879	16.97
1029.045	18.96
1029.21	23.99
1029.376	27.64
1029.541	27.71
1029.707	18.32
1029.873	27.23
1030.038	24.15
1030.204	14.65
1030.369	18.58
1030.534	28.09
1030.7	21.15
1030.865	24.64
1031.031	21.72
1031.196	38.73
1031.361	30.82
1031.527	20.4
1031.692	25.42
1031.857	37.37
1032.023	29.11
1032.188	27.81
1032.353	16.09
1032.518	27.36
1032.684	26.73
1032.849	11.39
1033.014	24.51
1033.179	25.86
1033.344	34.16
1033.509	22.74
1033.674	31.02
1033.839	30.01
1034.004	32.86
1034.17	34.84
1034.335	24.89
1034.5	38.54
1034.664	30.45
1034.829	25.89
1034.994	17.57
1035.159	12.64
1035.324	40.65
1035.489	28.47
1035.654	19.83
1035.819	43.93
1035.984	26.03
1036.148	24.59
1036.313	26.08
1036.478	35.36
1036.643	29.73
1036.807	23.39
1036.972	24.09
1037.137	37.6
1037.301	36.33
1037.466	24.82
1037.631	30.82
1037.795	22.8
1037.96	23.42
1038.124	35.08
1038.289	27.45
1038.454	25.26
1038.618	43.31
1038.783	28.21
1038.947	19.74
1039.111	27.25
1039.276	41.42
1039.44	26.58
1039.605	49.46
1039.769	35.6
1039.933	24.42
1040.098	23.91
1040.262	41.78
1040.426	39.45
1040.591	31.61
1040.755	39.22
1040.919	32.06
1041.083	45.89
1041.248	32.41
1041.412	30.29
1041.576	26.43
1041.74	20.88
1041.904	28.7
1042.068	35.81
1042.232	25.35
1042.397	40.19
1042.561	22.41
1042.725	24.56
1042.889	43.57
1043.053	28.27
1043.217	26.33
1043.381	29.04
1043.544	37.3
1043.708	28.58
1043.872	51.74
1044.036	21.99
1044.2	31.01
1044.364	47.54
1044.528	48.69
1044.691	-117.67
1044.855	42.13
1045.019	34.09
1045.183	36.91
1045.346	35.4
1045.51	25.42
1045.674	40.78
1045.837	40.02
1046.001	32.04
1046.165	41.9
1046.328	49.71
1046.492	20.7
1046.655	55.18
1046.819	40.33
1046.983	40.94
1047.146	29.78
1047.31	28.05
1047.473	33.7
1047.636	35.3
1047.8	26.91
1047.963	37.7
1048.127	14.38
1048.29	34.3
